Position  (cm)	V (V)	n (cm-3)	p (cm-3)
0	0	363568.288597614	363569.099107618
2.12151739152832e-09	0.000315879111222946	367368.721431665	359153.713090807
4.34707627935975e-09	0.000647169718311346	371404.617782675	354580.49782901
6.68121450657862e-09	0.000994535630731753	375692.084053096	349847.895010521
9.12863752259283e-09	0.00135866432852566	380248.531059789	344954.701979922
1.16942230432444e-08	0.00174026753727088	385092.801129332	339900.104998166
1.43830257664662e-08	0.00214008180160497	390245.309597933	334683.713107001
1.72002821403399e-08	0.00255886905614855	395728.202552335	329305.592370585
2.01514151801996e-08	0.00299741719259321	401565.53290733	323766.300234203
2.32420393311509e-08	0.00345654062163499	407783.457214685	318066.919705988
2.64779653721458e-08	0.0039370808283547	414410.455944467	312209.093032866
2.9865205357556e-08	0.00443990691957015	421477.5803809	306195.054506832
3.34099775918348e-08	0.00496591616158449	429018.72973997	300027.662003356
3.71187116327228e-08	0.00551603450668364	437070.962657128	293710.426819921
4.09980533181195e-08	0.00609121710663405	445674.847822895	287247.541351095
4.50548698114988e-08	0.00669244881134164	454874.859278538	280643.90410742
4.92962546604839e-08	0.0073207446507372	464719.822741757	273905.141559892
5.37295328629467e-08	0.0079771502978592	475263.420336214	267037.626270892
5.83622659346949e-08	0.00866274251099969	486564.762275446	260048.490757305
6.32022569725685e-08	0.00937862955268277	498689.035433859	252945.636523189
6.82575557064784e-08	0.0101259515831387	511708.240363638	245737.737699117
7.35364635336391e-08	0.0109058810258314	525702.030233225	238434.238734246
7.90475385279966e-08	0.0117196229024931	540758.667427016	231045.3456065
8.47996004175491e-08	0.0125684151350098	556976.116224626	223582.010047121
9.08017355220112e-08	0.0134535288113941	574463.293154262	216055.906319167
9.70633016429694e-08	0.0143762684129688	593341.50038766	208479.400146302
1.03593932898425e-07	0.0153379719997792	613746.072035428	200865.509458955
1.10403544493356e-07	0.0163400113511382	635828.268558958	193227.856710136
1.17502337417614e-07	0.017383792058094	659757.460918411	185580.612613032
1.24900803062315e-07	0.0184707535645129	685723.653747026	177938.431266477
1.32609727745455e-07	0.019602369153338	713940.406049075	170316.37676231
1.40640197137427e-07	0.0207801458744998	744648.21899633	162729.841508759
1.49003600576674e-07	0.0220056244108265	778118.47375314	155194.456655358
1.5771163526564e-07	0.0232803788782123	814658.018399962	147725.995164839
1.66776310336782e-07	0.0246060165561831	854614.522572709	140340.268243689
1.76209950778339e-07	0.0259841775449147	898382.74216733	133053.016012058
1.86025201209182e-07	0.0274165343446428	946411.865337088	125879.793462087
1.96235029491986e-07	0.0289047913533273	999214.146236746	118835.852916967
2.06852730173672e-07	0.0304506842783304	1057375.07604151	111936.024356814
2.17891927741934e-07	0.0320559794577923	1121565.39356889	105194.595116791
2.29366579686445e-07	0.033722473087299	1192555.30271624	98625.1905827503
2.41290979353221e-07	0.0354519903473766	1271231.34386619	92240.6576049701
2.53679758580406e-07	0.0372463844272646	1358616.46515105	86052.9524165064
2.66547890103673e-07	0.0391075354403749	1455893.96175056	80073.0348745146
2.79910689719234e-07	0.0410373492267803	1564436.10323727	74310.770836838
2.93783818192436e-07	0.0430377560380463	1685838.45803716	68774.8444387907
3.08183282899734e-07	0.0451107090996729	1821961.16009921	63472.6819442643
3.2312543919183e-07	0.047258183046402	1974978.65835831	58410.3887098509
3.38626991465696e-07	0.0494821722256333	2147439.86054751	53592.7006209453
3.54704993933107e-07	0.0517846888641814	2342341.04997519	49022.9511364679
3.71376851073405e-07	0.0541677610936375	2563214.5436139	44703.0548171863
3.88660317758096e-07	0.0566334308296094	2814236.80663759	40633.5079165717
4.06573499035004e-07	0.0591837515001672	3100360.68701712	36813.406289051
4.251348495597e-07	0.0618207856188714	3427477.64200109	33240.4805263366
4.44363172662013e-07	0.0645466021978356	3802617.37205715	29911.1478772911
4.64277619035532e-07	0.0673632739963678	4234194.25632854	26820.5801506279
4.8489768503811e-07	0.0702728746008374	4732312.52712502	23962.7864533796
5.06243210591526e-07	0.073277475331545	5309145.40095662	21330.7092924555
5.28334376668665e-07	0.076379141972521	5979407.62673253	18916.3322725445
5.51191702356702e-07	0.0795799313203329	6760946.41824282	16710.797371259
5.74836041485085e-07	0.0828818875481903	7675482.90701439	14704.5295707315
5.99288578807283e-07	0.0862870383818236	8749545.61517189	12887.3664814025
6.2457082572558e-07	0.0897973910838599	10015649.7177097	11248.6905139271
6.50704615548521e-07	0.093414928243672	11513791.9943708	9777.56114228974
6.7771209827089e-07	0.0971416033699537	13293352.6481473	8462.84485610465
7.05615734866513e-07	0.100979336283582	15415523.3251644	7293.34052087735
7.34438291084568e-07	0.104930008308659	17956418.0590662	6257.89804735358
7.64202830740457e-07	0.108995457259981	21011073.6743329	5345.5285081816
7.94932708492795e-07	0.113177472225558	24698612.7681685	4545.50412304264
8.2665156209855e-07	0.117477788143242	29168931.698311	3847.44685150817
8.59383304138806e-07	0.121898080170914	34611396.1928367	3241.40467425253
8.93152113208286e-07	0.126439957850207	41266189.4920513	2717.91499528561
9.27982424562175e-07	0.131104959064159	49439177.8218545	2268.05494789729
9.63898920214557e-07	0.135894543789789	59521456.925289	1883.47872282496
1.00092651848324e-06	0.140810087647073	72015151.1177337	1556.44234766041
1.03909036297655e-06	0.1458528752464	87567594.3469007	1279.81662212805
1.07841581101817e-06	0.151024093337207	107016788.951841	1047.08914698746
1.11892842150705e-06	0.156324823761074	131452093.367704	852.356569549758
1.16065394220993e-06	0.161756036213266	162295548.915	690.308303134418
1.20361829648488e-06	0.167318580817363	201411278.656708	556.203060586653
1.24784756943508e-06	0.173013180518336	251253205.009026	445.839574831006
1.29336799349282e-06	0.178840423300141	315065258.762287	355.522865961654
1.34020593343452e-06	0.184800754234705	397153746.855327	282.027359835982
1.38838787082855e-06	0.19089446736988	503259259.468477	222.558074075901
1.43794038791832e-06	0.197121697464819	641066356.055161	174.710971132862
1.48889015094427e-06	0.203482411581985	820904601.044982	136.433442345038
1.54126389290908e-06	0.209976400545868	1056716223.89189	105.985739351528
1.59508839579139e-06	0.216603270279328	1367396484.46586	81.9040170311346
1.65039047221459e-06	0.22336243302935	1778656660.25956	62.9655017525022
1.70719694657769e-06	0.230253098494861	2325622094.73744	48.1561556273326
1.76553463565681e-06	0.237274264870172	3056467121.20325	36.641075991823
1.8254303286864e-06	0.244424709818462	4037516699.88926	27.7377526613349
1.88691076693063e-06	0.251702981390657	5360428336.6348	20.8922055993786
1.95000262275624e-06	0.259107388905943	7152331977.57014	15.6579434192487
2.01473247821923e-06	0.266635993811026	9590185840.34848	11.6776185479297
2.08112680317883e-06	0.274286600536207	12921154308.8936	8.66720709500343
2.14921193295323e-06	0.282056747367159	17491605022.0557	6.40250905074521
2.21901404553247e-06	0.289943697352235	23788464556.1618	4.70774553926004
2.29055913836531e-06	0.297944429265971	32498322375.0634	3.44602238744106
2.36387300473738e-06	0.30605562865031	44592057245.9848	2.51143106905374
2.43898120975948e-06	0.314273678955929	61446205049.5456	1.82256702256056
2.5159090659857e-06	0.322594652806861	85017260289.095	1.31725944540933
2.59468160868202e-06	0.331014303412434	118092276762.896	0.948324177136708
2.67532357076715e-06	0.339528056151337	164649463700.546	0.680170697914835
2.75785935744839e-06	0.348131000353456	230377323132.6	0.486114362624236
2.84231302057633e-06	0.356817881305897	323422165407.053	0.346264809988975
2.92870823274291e-06	0.365583092510514	455464272281.174	0.245880332557094
3.01706826114874e-06	0.374420668221163	643266311810.828	0.174095392552872
3.10741594126617e-06	0.383324276289949	910899037999.776	0.122944138056135
3.19977365032567e-06	0.392287211353034	1292935920296.96	0.0866165852528138
3.29416328065395e-06	0.401302388388157	1839029699862.58	0.0608960761504254
3.39060621289304e-06	0.410362336678164	2620452642968.74	0.0427367737596651
3.48912328913053e-06	0.419459194217787	3739414968161.34	0.0299484525145605
3.58973478597165e-06	0.428584702605041	5342293552778.04	0.0209628488445082
3.69246038758518e-06	0.43773020246451	7638331453163.59	0.014661538900851
3.7973191587551e-06	0.446886629458262	10925938615569.7	0.01024989250886
3.90432951797149e-06	0.456044510952308	15629469550730.3	0.00716529119233326
4.01350921059396e-06	0.465193963423948	22350309337953.5	0.0050106557849007
4.12487528212218e-06	0.474324690720166	31937294387084.2	0.00350654988841554
4.23844405160815e-06	0.483425983312292	45582942737219.4	0.00245683413540274
4.35423108524561e-06	0.492486718741086	64953652779719.1	0.00172414860170847
4.47225117017228e-06	0.501495363514065	92363876952979.2	0.00121248460160792
4.59251828852124e-06	0.510439976808905	131006129346663	0.000854844128389028
4.71504559175772e-06	0.519308216460129	185250257423667	0.000604532930134524
4.83984537533834e-06	0.528087347868413	261026239220758	0.00042903720408016
4.96692905372961e-06	0.536764256680443	366304181742078	0.000305729767523099
5.09630713582301e-06	0.545325466348726	511682270559979	0.000218866816605449
5.22798920078386e-06	0.553757161998265	711086994805297	0.000157492011359289
5.36198387437138e-06	0.562045222397886	982578730114642	0.000113976490592234
5.49829880576723e-06	0.57017526224532	1.34923842694286e+15	8.30033961639881e-05
5.63694064494978e-06	0.578132687399467	1.84008682946574e+15	6.08623790213111e-05
5.77791502065126e-06	0.585902766083471	2.49095635561851e+15	4.49598464809365e-05
5.92122651893456e-06	0.593470719367061	3.34519910627629e+15	3.34791196746974e-05
6.06687866242651e-06	0.600821834319247	4.45407637840633e+15	2.51446282773144e-05
6.21487389024361e-06	0.607941602983104	5.87664239360003e+15	1.90582435450112e-05
6.36521353864642e-06	0.614815889631045	7.67891760124812e+15	1.45856056375878e-05
6.51789782245768e-06	0.621431127487417	9.93215695233887e+15	1.12770934554698e-05
6.67292581727915e-06	0.62777454416944	1.27100680968817e+16	8.81280429464469e-06
6.8302954425414e-06	0.633834412488474	1.6084932131328e+16	6.9641834290629e-06
6.99000344541999e-06	0.6396003200792	2.01227257594576e+16	5.56721031579095e-06
7.15204538565092e-06	0.645063447839646	2.48775263911142e+16	4.50361622644334e-06
7.31641562127722e-06	0.650216843778511	3.0385673722615e+16	3.6876922683792e-06
7.48310729535781e-06	0.655055676108041	3.66603226283509e+16	3.05699610503298e-06
7.65211232366876e-06	0.659577447866593	4.36871071015345e+16	2.56578364635592e-06
7.82342138342606e-06	0.663782155512262	5.14216047483241e+16	2.18035015078396e-06
7.99702390305782e-06	0.667672376106516	5.97891282177364e+16	1.87571303933339e-06
8.17290805305299e-06	0.671253271904135	6.86870877804911e+16	1.63324042809555e-06
8.35106073791205e-06	0.674532507020888	7.79898151811639e+16	1.43894849985803e-06
8.5314675892243e-06	0.677520077670599	8.75553835748015e+16	1.28227360590301e-06
8.7141129598946e-06	0.680228064344611	9.72336770718775e+16	1.15518261782214e-06
8.89897991954149e-06	0.682670320311999	1.06874814185878e+17	1.05152526321561e-06
9.08605025108686e-06	0.684862115168328	1.16337036763495e+17	9.66560311256361e-07
9.27530444855591e-06	0.686819754380181	1.25493325718023e+17	8.96607208461495e-07
9.46672171610474e-06	0.688560195762762	1.34236252027075e+17	8.38788650011724e-07
9.66027996829117e-06	0.690100681841604	1.4248085592928e+17	7.90839373066119e-07
9.85595583160292e-06	0.691458403597188	1.50165611719457e+17	7.50963400992097e-07
1.00537246472553e-05	0.69265020680696	1.57251738747631e+17	7.17726903318397e-07
1.02535604752692e-05	0.693692347708992	1.63721241828759e+17	6.89977359344342e-07
1.04554360998386e-05	0.694600300533368	1.69574107339978e+17	6.66782238543156e-07
1.06593230359935e-05	0.695388615936938	1.7482506012267e+17	6.47382228728948e-07
1.08651915375659e-05	0.696070826717402	1.79500222808122e+17	6.31155357473024e-07
1.10730106064588e-05	0.696659395407091	1.83633935279048e+17	6.17589307193097e-07
1.12827480032239e-05	0.697165697379501	1.87265905454249e+17	6.06259921275742e-07
1.14943702589441e-05	0.697600032802046	1.90438785372211e+17	5.96814409564199e-07
1.17078426884207e-05	0.69797166097043	1.93196204877646e+17	5.88958137835319e-07
1.19231294046606e-05	0.69828885110052	1.95581250801209e+17	5.8244416416794e-07
1.21401933346571e-05	0.69855894439055	1.97635351112011e+17	5.77064891706801e-07
1.23589962364568e-05	0.698788422987192	1.99397508293978e+17	5.72645361261895e-07
1.25794987175023e-05	0.698982982311427	2.00903820823817e+17	5.690378222467e-07
1.28016602542393e-05	0.69914760396982	2.02187232952973e+17	5.66117306712238e-07
1.30254392129732e-05	0.699286627162373	2.03277458377847e+17	5.63777996056409e-07
1.32507928719611e-05	0.69940381708502	2.04201030812414e+17	5.6193021881859e-07
1.34776774447197e-05	0.699502429310941	2.0498144254984e+17	5.60497954836111e-07
1.37060481045315e-05	0.699585269525407	2.056393399167e+17	5.5941674893748e-07
1.39358590101256e-05	0.699654748293737	2.06192751574946e+17	5.5863195851268e-07
1.4167063332512e-05	0.69971293077285	2.0665733167819e+17	5.58097275406285e-07
1.4399613282943e-05	0.699761581445939	2.07046604886022e+17	5.57773474878768e-07
1.46334601419745e-05	0.699802204078552	2.07372204237237e+17	5.5762735381663e-07
1.48685542896001e-05	0.699836077173128	2.07644095991287e+17	5.57630827649544e-07
1.51048452364254e-05	0.699864285246772	2.07870787900978e+17	5.57760161083381e-07
1.53422816558524e-05	0.699887746281226	2.08059519113993e+17	5.5799531217957e-07
1.5580811417239e-05	0.699907235700841	2.08216431141596e+17	5.58319372802094e-07
1.58203816199984e-05	0.699923407228648	2.08346720189128e+17	5.5871809123669e-07
1.60609386286027e-05	0.699936810956407	2.08454771706555e+17	5.59179465029407e-07
1.63024281084502e-05	0.699947908944652	2.08544278362788e+17	5.59693393918249e-07
1.65447950625587e-05	0.699957088645594	2.08618342834175e+17	5.60251384235471e-07
1.67879838690426e-05	0.699964674416944	2.08679566871383e+17	5.60846297408906e-07
1.70319383193312e-05	0.69997093736952	2.08730128105056e+17	5.6147213624083e-07
1.72766016570859e-05	0.699976103766798	2.08771845995453e+17	5.62123863531882e-07
1.75219166177687e-05	0.699980362170872	2.08806238244156e+17	5.62797248375351e-07
1.776782546882e-05	0.699983869507122	2.08834568880961e+17	5.63488736096739e-07
1.80142700503945e-05	0.699986756199263	2.08857889125996e+17	5.6419533837281e-07
1.82611918166109e-05	0.699989130507719	2.08877072013008e+17	5.64914540547305e-07
1.85085318772648e-05	0.699991082187217	2.08892841648887e+17	5.65644223578413e-07
1.87562310399549e-05	0.699992685564252	2.08905797879972e+17	5.66382598415087e-07
1.90042298525741e-05	0.69999400212149	2.08916437038912e+17	5.67128150912954e-07
1.92524686461131e-05	0.699995082664117	2.08925169357867e+17	5.67879595672141e-07
1.95008875777254e-05	0.6999959691326	2.08932333554658e+17	5.68635837414401e-07
1.97494266740029e-05	0.699996696117017	2.08938209028009e+17	5.69395938719972e-07
1.99980258744083e-05	0.699997292120072	2.08943026035875e+17	5.7015909311981e-07
2.02466250748138e-05	0.699997780608878	2.08946974176325e+17	5.70924602689653e-07
2.04951641710913e-05	0.69999818088957	2.08950209442996e+17	5.71691859422016e-07
2.07435831027036e-05	0.699998508833568	2.08952860086018e+17	5.7246032976336e-07
2.09918218962426e-05	0.699998777479847	2.0895503147382e+17	5.73229541798743e-07
2.12398207088618e-05	0.699998997533763	2.08956810120829e+17	5.73999074647455e-07
2.14875198715519e-05	0.699999177779692	2.08958267019973e+17	5.74768549702258e-07
2.17348599322057e-05	0.699999325421993	2.08959460396742e+17	5.75537623403602e-07
2.19817816984222e-05	0.699999446366437	2.08960437982677e+17	5.76305981289993e-07
2.22282262799967e-05	0.699999545452255	2.08961238890178e+17	5.7707333310785e-07
2.2474135131048e-05	0.699999626643295	2.08961895157039e+17	5.7783940879975e-07
2.27194500917308e-05	0.699999693185346	2.08962433017698e+17	5.7860395521995e-07
2.29641134294855e-05	0.699999747735504	2.08962873948678e+17	5.79366733451275e-07
2.32080678797741e-05	0.699999792468473	2.08963235527635e+17	5.80127516618619e-07
2.3451256686258e-05	0.699999829163844	2.0896353213871e+17	5.80886088112036e-07
2.36936236403665e-05	0.699999859277704	2.08963775551308e+17	5.81642240147186e-07
2.3935113120214e-05	0.699999884001363	2.08963975394703e+17	5.8239577260331e-07
2.41756701288183e-05	0.699999904309476	2.08964139547e+17	5.83146492089182e-07
2.44152403315777e-05	0.699999920999464	2.08964274453751e+17	5.83894211196079e-07
2.46537700929643e-05	0.699999934723788	2.08964385388814e+17	5.84638747903944e-07
2.48912065123913e-05	0.699999946016364	2.08964476667853e+17	5.85379925112804e-07
2.51274974592166e-05	0.699999955314173	2.08964551822996e+17	5.86117570276435e-07
2.53625916068422e-05	0.69999996297493	2.08964613745692e+17	5.86851515119298e-07
2.55964384658737e-05	0.699999969291541	2.08964664803516e+17	5.87581595421137e-07
2.58289884163047e-05	0.699999974503912	2.08964706935658e+17	5.8830765085638e-07
2.60601927386911e-05	0.69999997880861	2.08964741730967e+17	5.89029524877787e-07
2.62900036442852e-05	0.699999982366747	2.08964770491748e+17	5.89747064635662e-07
2.6518374304097e-05	0.699999985310438	2.08964794285884e+17	5.90460120925483e-07
2.67452588768556e-05	0.699999987748064	2.08964813989443e+17	5.91168548158104e-07
2.69706125358435e-05	0.699999989768585	2.08964830321492e+17	5.91872204347711e-07
2.71943914945774e-05	0.699999991445057	2.08964843872557e+17	5.92570951113579e-07
2.74165530313144e-05	0.699999992837513	2.0896485512788e+17	5.93264653692402e-07
2.76370555123599e-05	0.699999993995311	2.08964864486439e+17	5.93953180958522e-07
2.78558584141596e-05	0.699999994959064	2.08964872276499e+17	5.94636405449885e-07
2.80729223441561e-05	0.699999995762206	2.08964878768333e+17	5.95314203397927e-07
2.8288209060396e-05	0.699999996432288	2.08964884184625e+17	5.95986454759934e-07
2.85016814898726e-05	0.699999996992027	2.08964888708995e+17	5.96653043252656e-07
2.87133037455928e-05	0.699999997460168	2.0896489249297e+17	5.9731385638621e-07
2.89230411423579e-05	0.699999997852193	2.08964895661695e+17	5.9796878549745e-07
2.91308602112508e-05	0.699999998180901	2.08964898318617e+17	5.98617725782155e-07
2.93367287128232e-05	0.69999999845688	2.08964900549326e+17	5.99260576325492e-07
2.95406156489781e-05	0.699999998688899	2.08964902424697e+17	5.99897240130327e-07
2.97424912735475e-05	0.699999998884225	2.0896490400348e+17	6.00527624143021e-07
2.99423271015614e-05	0.69999999904889	2.08964905334422e+17	6.01151639276431e-07
3.01400959172138e-05	0.699999999187901	2.08964906458008e+17	6.01769200429891e-07
3.03357717805255e-05	0.699999999305424	2.08964907407898e+17	6.02380226505995e-07
3.0529330032712e-05	0.699999999404924	2.08964908212108e+17	6.02984640424036e-07
3.07207473002608e-05	0.699999999489289	2.08964908893978e+17	6.03582369130008e-07
3.09100014977298e-05	0.699999999560927	2.0896490947298e+17	6.04173343603084e-07
3.10970718292752e-05	0.69999999962185	2.08964909965371e+17	6.04757498858526e-07
3.12819387889221e-05	0.699999999673739	2.08964910384742e+17	6.05334773946989e-07
3.14645841595924e-05	0.699999999718003	2.08964910742471e+17	6.05905111950216e-07
3.16449910109046e-05	0.699999999755819	2.0896491104809e+17	6.06468459973107e-07
3.18231436957637e-05	0.699999999788178	2.08964911309598e+17	6.07024769132201e-07
3.19990278457589e-05	0.699999999815912	2.08964911533713e+17	6.07573994540584e-07
3.21726303653906e-05	0.699999999839718	2.08964911726086e+17	6.08116095289253e-07
3.23439394251479e-05	0.699999999860185	2.08964911891476e+17	6.08651034425009e-07
3.25129444534589e-05	0.699999999877811	2.08964912033896e+17	6.09178778924898e-07
3.26796361275395e-05	0.699999999893015	2.08964912156733e+17	6.09699299667293e-07
3.28440063631658e-05	0.699999999906149	2.08964912262851e+17	6.1021257139967e-07
