Position  (cm)	V (V)	n (cm-3)	p (cm-3)
0	0	1.74353231330593e-14	3.02071711165256e+16
2.27986488733322e-09	3.42716211546249e-10	1.74340413529069e-14	3.02071707160726e+16
4.78638710893473e-09	7.19505382829883e-10	1.74326321419859e-14	3.02071702758064e+16
7.53943637653096e-09	1.13335618581383e-09	1.7431084329177e-14	3.02071697922349e+16
1.05603366094998e-08	1.58747687543499e-09	1.74293859257719e-14	3.02071692616092e+16
1.38719433424862e-08	2.08530731422744e-09	1.74275240819506e-14	3.02071686799102e+16
1.74987224573138e-08	2.63053132492346e-09	1.74254850425133e-14	3.02071680428333e+16
2.14668299687519e-08	3.22708936809251e-09	1.74232541020186e-14	3.02071673457742e+16
2.58041925613601e-08	3.87919154688522e-09	1.7420815559498e-14	3.02071665838136e+16
3.05405885411803e-08	4.59133094814702e-09	1.7418152672935e-14	3.02071657517014e+16
3.5707728831983e-08	5.36829733900574e-09	1.74152476137176e-14	3.02071648438409e+16
4.13393376110172e-08	6.2151912511342e-09	1.74120814212892e-14	3.02071638542725e+16
4.74712321441638e-08	7.13743850196638e-09	1.74086339582476e-14	3.0207162776656e+16
5.41414013452507e-08	8.1408052238736e-09	1.74048838661544e-14	3.02071616042542e+16
6.13900825492864e-08	9.23141349968878e-09	1.74008085223452e-14	3.02071603299134e+16
6.92598359549032e-08	1.04157577371121e-08	1.73963839980406e-14	3.02071589460452e+16
7.77956161575683e-08	1.17007219563437e-08	1.73915850180854e-14	3.02071574446059e+16
8.70448401626033e-08	1.3093598216325e-08	1.73863849226555e-14	3.02071558170749e+16
9.70574512359653e-08	1.4602106466921e-08	1.73807556312905e-14	3.02071540544318e+16
1.07885977921572e-07	1.62344161881365e-08	1.73746676096281e-14	3.02071521471307e+16
1.19585587527084e-07	1.79991702659468e-08	1.7368089839228e-14	3.02071500850729e+16
1.32214133355798e-07	1.99055116589804e-08	1.73609897908864e-14	3.0207147857575e+16
1.45832194941192e-07	2.19631135330954e-08	1.73533334018563e-14	3.02071454533344e+16
1.60503110523097e-07	2.41822136857024e-08	1.73450850573928e-14	3.02071428603885e+16
1.76293000990736e-07	2.65736542497237e-08	1.73362075770535e-14	3.02071400660688e+16
1.93270784508659e-07	2.91489278619999e-08	1.73266622061868e-14	3.02071370569465e+16
2.1150818103702e-07	3.19202317072144e-08	1.73164086130393e-14	3.02071338187697e+16
2.31079705958351e-07	3.49005311090525e-08	1.73054048919183e-14	3.02071303363888e+16
2.52062652029238e-07	3.81036346377819e-08	1.72936075728313e-14	3.02071265936693e+16
2.74537058887484e-07	4.15442830470117e-08	1.7280971638024e-14	3.0207122573387e+16
2.98585669363857e-07	4.52382547442661e-08	1.72674505458203e-14	3.02071182571055e+16
3.24293871872586e-07	4.92024909460433e-08	1.72529962621537e-14	3.02071136250298e+16
3.51749628186758e-07	5.34552441792039e-08	1.72375593001591e-14	3.02071086558326e+16
3.81043385943814e-07	5.80162543750304e-08	1.72210887681683e-14	3.02071033264486e+16
4.12267975272759e-07	6.2906957468267e-08	1.72035324264256e-14	3.02070976118308e+16
4.45518488988454e-07	6.81507321752574e-08	1.71848367528042e-14	3.02070914846623e+16
4.80892145859686e-07	7.37731915052659e-08	1.71649470177696e-14	3.02070849150155e+16
5.18488136526516e-07	7.9802526570429e-08	1.71438073687922e-14	3.02070778699504e+16
5.58407451718691e-07	8.62699114259274e-08	1.71213609243671e-14	3.02070703130415e+16
6.00752692510514e-07	9.32099790350936e-08	1.70975498777482e-14	3.02070622038219e+16
6.45627862438318e-07	1.00661380046379e-07	1.70723156104516e-14	3.02070534971303e+16
6.93138141404302e-07	1.08667437932282e-07	1.70455988155249e-14	3.02070441423452e+16
7.43389641394613e-07	1.17276916249033e-07	1.70173396305201e-14	3.02070340824891e+16
7.96489144149785e-07	1.26544916392395e-07	1.69874777800434e-14	3.02070232531787e+16
8.5254382104134e-07	1.36533927348845e-07	1.6955952727693e-14	3.0207011581399e+16
9.11660935529178e-07	1.47315052683099e-07	1.69227038371256e-14	3.02069989840694e+16
9.73947528699356e-07	1.58969444490948e-07	1.68876705419276e-14	3.02069853663679e+16
1.03951008851042e-06	1.71589979473749e-07	1.68507925238972e-14	3.02069706197736e+16
1.1084542035078e-06	1.85283218842613e-07	1.68120098992772e-14	3.02069546197756e+16
1.18088420189888e-06	2.00171701696905e-07	1.67712634124091e-14	3.02069372231943e+16
1.25690277701528e-06	2.16396631150693e-07	1.67284946362196e-14	3.02069182650425e+16
1.33661060032293e-06	2.34121024180275e-07	1.66836461788837e-14	3.02068975548449e+16
1.42010592327288e-06	2.53533410379041e-07	1.66366618959555e-14	3.0206874872317e+16
1.50748416941634e-06	2.74852182093393e-07	1.65874871072053e-14	3.02068499622817e+16
1.59883751833422e-06	2.98330719451227e-07	1.65360688173523e-14	3.0206822528682e+16
1.69425448305346e-06	3.24263439363314e-07	1.64823559398501e-14	3.02067922275129e+16
1.79381948273912e-06	3.52992948732133e-07	1.64262995228454e-14	3.02067586584638e+16
1.89761241256026e-06	3.84918519981249e-07	1.63678529764159e-14	3.02067213550165e+16
2.00570821272893e-06	4.20506153105354e-07	1.63069723001818e-14	3.02066797726885e+16
2.11817643880331e-06	4.60300544593414e-07	1.62436163103889e-14	3.02066332750494e+16
2.23508083542726e-06	5.04939351861726e-07	1.61777468655793e-14	3.02065811170554e+16
2.35647891574841e-06	5.55170224961659e-07	1.61093290899992e-14	3.0206522425151e+16
2.4824215488137e-06	6.11871178546154e-07	1.6038331593941e-14	3.02064561734684e+16
2.61295255728497e-06	6.76075000313883e-07	1.59647266902873e-14	3.02063811553114e+16
2.74810832784621e-06	7.48998542142095e-07	1.58884906066128e-14	3.02062959489367e+16
2.88791743668788e-06	8.32077922714197e-07	1.58096036923124e-14	3.02061988764286e+16
3.03240029245144e-06	9.2701089272621e-07	1.57280506203614e-14	3.02060879542086e+16
3.18156879899887e-06	1.0358078841323e-06	1.56438205834804e-14	3.02059608334022e+16
3.33542604033634e-06	1.16085359378982e-06	1.55569074846749e-14	3.02058147279018e+16
3.49396598996833e-06	1.30498135159512e-06	1.54673101223539e-14	3.02056463275002e+16
3.65717324688866e-06	1.47156300853713e-06	1.5375032370508e-14	3.02054516929015e+16
3.82502280032717e-06	1.66461766895891e-06	1.52800833547449e-14	3.02052261287281e+16
3.997479825266e-06	1.88894330477791e-06	1.518247762536e-14	3.02049640298154e+16
4.17449951061803e-06	2.15027615220845e-06	1.50822353290497e-14	3.02046586950745e+16
4.35602692182135e-06	2.45548383350334e-06	1.49793823813803e-14	3.0204302101995e+16
4.54199689944994e-06	2.81279940148853e-06	1.48739506427116e-14	3.02038846333959e+16
4.73233399527135e-06	3.23210501304572e-06	1.47659781009461e-14	3.02033947462789e+16
4.92695244699865e-06	3.72527574553841e-06	1.46555090652553e-14	3.02028185705407e+16
5.12575619278768e-06	4.30659622920578e-06	1.45425943758317e-14	3.02021394227918e+16
5.32863892632197e-06	4.99326533780273e-06	1.44272916357445e-14	3.02013372175551e+16
5.53548419310883e-06	5.80600722432726e-06	1.43096654721592e-14	3.02003877545986e+16
5.74616552838202e-06	6.76981057935299e-06	1.41897878355226e-14	3.0199261857009e+16
5.9605466367709e-06	7.9148222010306e-06	1.40677383468462e-14	3.01979243297773e+16
6.17848161365464e-06	9.27742587598691e-06	1.39436047049369e-14	3.01963327030351e+16
6.39981520787456e-06	1.09015432553772e-05	1.38174831673587e-14	3.0194435717607e+16
6.62438312523032e-06	1.28401999392757e-05	1.36894791210425e-14	3.01921715031483e+16
6.85201237193754e-06	1.51574074134004e-05	1.35597077608234e-14	3.01894653907984e+16
7.0825216369783e-06	1.7930419850283e-05	1.34282948967366e-14	3.01862272929936e+16
7.31572171203331e-06	2.12524340909231e-05	1.3295377913655e-14	3.01823485729249e+16
7.55141594744722e-06	2.52358113173989e-05	1.31611069097391e-14	3.01776983152323e+16
7.78940074244888e-06	3.00159098921868e-05	1.30256460431734e-14	3.01721188981757e+16
8.0294660676277e-06	3.57556303674969e-05	1.28891751196887e-14	3.01654207561346e+16
8.27139601745822e-06	4.2650785432257e-05	1.27518914563484e-14	3.01573762105005e+16
8.51496939046824e-06	5.09364190825689e-05	1.26140120598894e-14	3.01477122377403e+16
8.75996029446398e-06	6.08942099132647e-05	1.24757761604454e-14	3.01361020368789e+16
9.00613877405998e-06	7.28611022409487e-05	1.23374481436015e-14	3.01221552565323e+16
9.2532714576129e-06	8.72393146321418e-05	1.21993209253096e-14	3.01054067461153e+16
9.50112222052863e-06	0.000104507876866219	1.20617198151166e-14	3.00853037097198e+16
9.74945286180252e-06	0.000125235841634873	1.19250069133495e-14	3.0061191167887e+16
9.99802379056335e-06	0.000150097304232421	1.17895860873659e-14	3.0032295676295e+16
1.02465947193242e-05	0.000179888339619968	1.16559085707635e-14	2.99977073162632e+16
1.04949253605981e-05	0.000215545928752494	1.15244792278145e-14	2.99563600656423e+16
1.07427761235138e-05	0.000258168891875536	1.13958635237493e-14	2.99070107863599e+16
1.09899088070667e-05	0.000309040772390914	1.12706952404539e-14	2.98482172331198e+16
1.12360872866627e-05	0.000369654517716316	1.11496849775692e-14	2.97783157025327e+16
1.14810781906585e-05	0.000441738680468268	1.10336294820112e-14	2.96953992079989e+16
1.17246515636685e-05	0.000527284712154565	1.09234218559822e-14	2.9597297384902e+16
1.1966581513499e-05	0.00062857474143655	1.08200627062913e-14	2.94815597004015e+16
1.22066468386778e-05	0.00074820902075781	1.07246723179807e-14	2.93454439525615e+16
1.24446316336795e-05	0.000889131992160361	1.06385039647155e-14	2.91859124747989e+16
1.26803258690934e-05	0.00105465567219843	1.05629585088193e-14	2.89996388804617e+16
1.29135259441484e-05	0.00124847879798689	1.04996004964603e-14	2.87830285390184e+16
1.31440352091892e-05	0.0014746999275409	1.04501760189505e-14	2.8532256201418e+16
1.33716644558964e-05	0.0017378224692525	1.04166326890895e-14	2.82433242001712e+16
1.35962323732521e-05	0.00204274945466278	1.04011421702851e-14	2.79121443367288e+16
1.38175659674721e-05	0.00239476579784421	1.04061257926168e-14	2.75346458247289e+16
1.40355009443558e-05	0.00279950583959901	1.04342838892807e-14	2.71069103809164e+16
1.42498820527447e-05	0.00326290419122307	1.04886295818998e-14	2.66253336763723e+16
1.44605633880179e-05	0.00379112830403163	1.0572527825367e-14	2.60868098700696e+16
1.46674086548047e-05	0.00439049182038977	1.0689740581616e-14	2.54889329312439e+16
1.4870291388339e-05	0.00506734861715663	1.08444790147507e-14	2.48302051274079e+16
1.50690951341281e-05	0.00582796851870152	1.10414635739126e-14	2.41102397623203e+16
1.52637135858553e-05	0.00667839689008105	1.1285992740446e-14	2.33299424765466e+16
1.54540506816768e-05	0.00762430164641287	1.158402104846e-14	2.2491653740882e+16
1.56400206593054e-05	0.00867081252661204	1.19422467270312e-14	2.15992351484508e+16
1.58215480705087e-05	0.00982235864902775	1.23682089437241e-14	2.06580841913704e+16
1.59985677558607e-05	0.0110825112533964	1.28703941433107e-14	1.96750665792484e+16
1.61710247807995e-05	0.0124538390061734	1.34583503596752e-14	1.86583616388255e+16
1.6338874334238e-05	0.0139377832015234	1.41428076281358e-14	1.76172243196159e+16
1.65020815911584e-05	0.0155345595746733	1.49358017429871e-14	1.65616758273385e+16
1.66606215407904e-05	0.0172430922685508	1.58507975997323e-14	1.5502142689183e+16
1.68144787821278e-05	0.0190609838366167	1.69028072523816e-14	1.44490698922875e+16
1.69636472886753e-05	0.0209845231722199	1.81084966519929e-14	1.34125366460011e+16
1.71081301444388e-05	0.0230087311079719	1.948627385624e-14	1.2401902814269e+16
1.72479392532805e-05	0.0251274413359073	2.10563503923601e-14	1.14255102412604e+16
1.73830950238417e-05	0.027333412460889	2.28407665301714e-14	1.04904567169275e+16
1.7513626032313e-05	0.0296184655556775	2.4863370563775e-14	9.6024523024037e+15
1.76395686653783e-05	0.0319736406519931	2.71497419687146e-14	8.76575939372815e+15
1.77609667456994e-05	0.0343893651942108	2.97270486052596e-14	7.98321042503792e+15
1.78778711423234e-05	0.0368556275838795	3.26238291098132e-14	7.2562913568481e+15
1.79903393683978e-05	0.0393621494783744	3.58696933631288e-14	6.58527552000473e+15
1.80984351685664e-05	0.0418985513357852	3.94949364524597e-14	5.96939104351305e+15
1.82022280983876e-05	0.0444545067484672	4.35300649066378e-14	5.40700567380392e+15
1.83017930980732e-05	0.0470198822325634	4.80052380727035e-14	4.89581480819273e+15
1.83972100627925e-05	0.0495848602355574	5.29496321388428e-14	4.43302144021434e+15
1.84885634117104e-05	0.0521400441409174	5.8390739290463e-14	4.01549990527142e+15
1.85759416578538e-05	0.0546765449199274	6.4353619476665e-14	3.63993839920067e+15
1.86594369808038e-05	0.0571860497890791	7.08601269142338e-14	3.30295792769588e+15
1.87391448041114e-05	0.059660873771244	7.79281373835965e-14	3.0012074782471e+15
1.88151633792278e-05	0.0620939954422677	8.55708051907615e-14	2.73143674852696e+15
1.88875933776189e-05	0.0644790783846134	9.37958801177057e-14	2.49054875316191e+15
1.89565374926163e-05	0.0668104799983953	1.02605114461623e-13	2.27563515395112e+15
1.90221000524273e-05	0.0690832493569529	1.11993788292388e-13	2.08399732034636e+15
1.90843866455975e-05	0.0712931157588764	1.21950377404757e-13	1.9131560323014e+15
1.91435037600854e-05	0.0734364695489561	1.32456383191462e-13	1.76085248152999e+15
1.91995584369769e-05	0.0755103366680125	1.43486337165481e-13	1.62504288309879e+15
1.92526579397321e-05	0.0775123482613363	1.55007985495643e-13	1.50388863363989e+15
1.93029094397224e-05	0.0794407065372215	1.66982651158565e-13	1.39574358321036e+15
1.93504197186884e-05	0.0812941479281998	1.79365763655844e-13	1.29913964886763e+15
1.93952948886162e-05	0.0830719044729694	1.92107539175156e-13	1.21277170146017e+15
1.9437640129408e-05	0.0847736642099728	2.05153788019953e-13	1.13548240775943e+15
1.94775594446002e-05	0.0863995312558982	2.18446821426054e-13	1.06624750689694e+15
1.9515155435267e-05	0.087949986135011	2.31926426750316e-13	1.00416183949791e+15
1.95505290921382e-05	0.0894258468283874	2.45530878555349e-13	948426324205570
1.95837796058539e-05	0.0908282309256045	2.59197953301976e-13	898335983923096
1.96150041951829e-05	0.0921585191847448	2.72865917064312e-13	853269056919229
1.96442979529399e-05	0.093418320739067	2.86474458680963e-13	812677180955113
1.96717537092541e-05	0.0946094401296738	2.99965544765994e-13	776076607131317
1.96974619117628e-05	0.0957338462921975	3.13284177706746e-13	743040380428201
1.97215105222392e-05	0.0967936435812642	3.26379042850336e-13	713191412944889
1.97439849290975e-05	0.0977910448785377	3.39203036218075e-13	686196370981804
1.97649678751684e-05	0.0987283467979095	3.51713669021024e-13	661760296668243
1.97845394000897e-05	0.0996079069742387	3.63873349757274e-13	639621887297926
1.9802776796618e-05	0.100432123399458	3.75649548591962e-13	619549359766934
1.9819754580136e-05	0.101203415751311	3.8701485194882e-13	601336832873017
1.98355444706036e-05	0.101924208645065	3.97946917727906e-13	584801166007325
1.98502153861855e-05	0.102596916726753	4.08428343306519e-13	569779198740295
1.98638334477709e-05	0.10322393151757	4.18446459519277e-13	556125341595182
1.98764619935996e-05	0.103807609912546	4.27993064216601e-13	543709473794620
1.98881616032051e-05	0.104350264232224	4.37064108857284e-13	532415108885203
1.98989901298907e-05	0.104854153723598	4.45659351000504e-13	522137793811919
1.99090027409641e-05	0.10532147740561	4.53781984628741e-13	512783711236313
1.99182519649691e-05	0.105754368154921	4.61438259053232e-13	504268458666088
1.99267877451718e-05	0.10615488792925	4.68637095821778e-13	496515981330462
1.99346574985774e-05	0.106525024028017	4.75389711642143e-13	489457638694796
1.99419061797815e-05	0.106866686293308	4.81709253922255e-13	483031387122194
1.99485763489825e-05	0.107181705158008	4.87610454162712e-13	477181063469663
1.99547082435157e-05	0.107471830452271	4.93109303159665e-13	471855756416004
1.99603398522947e-05	0.107738730884152	4.9822275081268e-13	467009254056950
1.99655069925855e-05	0.107983994115124	5.02968432302629e-13	462599557813097
1.99702433885653e-05	0.108209127356211	5.07364421515211e-13	458588454031291
1.9974580751158e-05	0.108415558415603	5.11429011837997e-13	454941135795379
1.99785488586694e-05	0.108604637133677	5.15180523848294e-13	451625868455955
1.99821756377842e-05	0.108777637146372	5.1863713892652e-13	448613693265945
1.99854872445172e-05	0.108935757922793	5.21816757463297e-13	445878164239325
1.99885081447502e-05	0.109080127027667	5.24736880065797e-13	443395114016455
1.99912611940178e-05	0.109211802563853	5.27414509994992e-13	441142445072828
1.99937677162394e-05	0.109331775754486	5.29866074967614e-13	439099943099706
1.99960475811267e-05	0.109440973628491	5.32107366421004e-13	437249109809561
1.99981192800281e-05	0.109540261777106	5.34153494353596e-13	435573012783105
2e-05	0.109630447152744	5.36018855907543e-13	434056150294552
2.00025e-05	0.109746937918559	8.82046257271952e-13	338881637826562
2.0005e-05	0.109857134789698	1.4510766491508e-12	264641237978810
2.00075e-05	0.109961673915165	2.38664767721037e-12	206710961253398
2.001e-05	0.110061101391526	3.9245962246272e-12	161494107798730
2.00125e-05	0.11015588917114	6.45236298731043e-12	126191177401743
2.0015e-05	0.110246447660413	1.06063772999038e-11	98621916528120.7
2.00175e-05	0.110333135794256	1.74319606410774e-11	77087488151380.1
2.002e-05	0.110416269163546	2.86458637941616e-11	60263587119523.2
2.00225e-05	0.110496126624833	4.70672811026105e-11	47117466878373.8
2.0025e-05	0.110572955715697	7.73254088904863e-11	36843470911739.5
2.00275e-05	0.110646977122165	1.2702090589656e-10	28812903440812.5
2.003e-05	0.110718388387839	2.08632317219143e-10	22535023988302.4
2.00325e-05	0.110787367011992	3.42645098242329e-10	17626679668549.5
2.0035e-05	0.11085407305198	5.6268701024743e-10	13788650252707.1
2.00375e-05	0.110918651320971	9.23955949914794e-10	10787213792625.4
2.004e-05	0.110981233253324	1.51705037347337e-09	8439774849790.1
2.00425e-05	0.111041938495485	2.49066450703881e-09	6603655969622.86
2.0045e-05	0.111100876268967	4.0888286183698e-09	5167353343483.04
2.00475e-05	0.111158146543143	6.71201338910423e-09	4043712918576.88
2.005e-05	0.111213841048554	1.10173866105573e-08	3164603783066.37
2.00525e-05	0.111268044155857	1.80833022101687e-08	2476759302920.91
2.0055e-05	0.11132083364111	2.96791634441157e-08	1938529297593.46
2.00575e-05	0.11137228135445	4.87081481046567e-08	1517343176003.16
2.006e-05	0.111422453806385	7.99334973615736e-08	1187728038956.29
2.00625e-05	0.11147141268351	1.3116994877366e-07	929760082597.931
2.0065e-05	0.111519215303569	2.15238145959013e-07	727854382228.931
2.00675e-05	0.111565915018191	3.53170522832331e-07	569818982060.93
2.007e-05	0.111611561570332	5.79469863704423e-07	446115469033.003
2.00725e-05	0.1116562014124	9.50734581525043e-07	349280885347.041
2.0075e-05	0.111699877990102	1.55980580720778e-06	273475724346.857
2.00775e-05	0.111742631996373	2.55897066257752e-06	214130472348.397
2.008e-05	0.11178450159906	4.19801798051854e-06	167669183473.563
2.00825e-05	0.111825522645568	6.88665196670841e-06	131293278491.254
2.0085e-05	0.111865728847186	1.12968518162422e-05	102812431748.982
2.00875e-05	0.11190515194548	1.85307395001494e-05	80512279491.1698
2.009e-05	0.111943821862799	3.03958733421982e-05	63050924221.6413
2.00925e-05	0.111981766838679	4.98567036829287e-05	49377961031.0055
2.0095e-05	0.112019013553695	8.17749020800488e-05	38671120372.6947
2.00975e-05	0.11205558724214	0.000134123381912914	30286691408.2582
2.01e-05	0.112091511794688	0.000219977047931425	23720726118.5065
2.01025e-05	0.112126809852125	0.000360777182194672	18578678023.8463
2.0105e-05	0.112161502891034	0.000591684173064897	14551640394.393
2.01075e-05	0.112195611302269	0.000970354462932096	11397748449.3068
2.011e-05	0.112229154462928	0.00159133193192428	8927622539.071
2.01125e-05	0.112262150802451	0.0026096447273682	6992973718.35882
2.0115e-05	0.112294617863428	0.00427949527040899	5477684278.33254
2.01175e-05	0.112326572357601	0.00701769617013629	4290825347.06655
2.012e-05	0.112358030217515	0.01150767812479	3361190645.06768
2.01225e-05	0.112389006644215	0.0188700158865038	2633017003.44621
2.0125e-05	0.112419516151357	0.0309420078921536	2062633859.18791
2.01275e-05	0.11244957260603	0.0507360479865584	1615839968.92048
2.013e-05	0.112479189266604	0.0831911116127607	1265849426.5831
2.01325e-05	0.112508378817842	0.136404781361355	991683379.244413
2.0135e-05	0.112537153403519	0.223653065909108	776910686.331187
