Position  (cm)	V (V)	n (cm-3)	p (cm-3)
0	0	363568.286013979	363569.099107618
2.12151739152832e-09	0.000315879111178058	367366.587372181	359153.713091427
4.34707627935975e-09	0.000647169718219359	371400.223476524	354580.497830256
6.68121450657862e-09	0.000994535630590319	375685.292361289	349847.895012397
9.12863752259283e-09	0.0013586643283325	380239.195581309	344954.701982429
1.16942230432444e-08	0.00174026753702337	385080.765781656	339900.105001306
1.43830257664662e-08	0.00214008180130066	390230.407697032	334683.713110769
1.72002821403399e-08	0.00255886905578452	395710.256009798	329305.59237498
2.01514151801996e-08	0.00299741719216664	401544.351451415	323766.300239217
2.32420393311509e-08	0.00345654062114301	407758.836995056	318066.919711613
2.64779653721458e-08	0.0039370808277943	414382.178416337	312209.093039089
2.9865205357556e-08	0.00443990691893812	421445.412082214	306195.054513639
3.34099775918348e-08	0.00496591616087739	428982.418737359	300027.662010727
3.71187116327228e-08	0.00551603450589799	437030.23995486	293710.426827837
4.09980533181195e-08	0.00609121710576623	445629.423547596	287247.54135953
4.50548698114988e-08	0.00669244881038788	454824.422053534	280643.904116348
4.92962546604839e-08	0.00732074464969351	464664.036002404	273905.141569285
5.37295328629467e-08	0.00797715029672191	475201.922706428	267037.626280712
5.83622659346949e-08	0.00866274250976443	486497.162969277	260048.490767517
6.32022569725685e-08	0.00937862955134529	498614.910937869	252945.63653375
6.82575557064784e-08	0.0101259515816942	511627.137281668	245737.737709987
7.35364635336391e-08	0.0109058810242751	525613.451462004	238434.238745373
7.90475385279966e-08	0.0117196229008202	540662.074828776	231045.34561784
8.47996004175491e-08	0.0125684151332153	556870.929217422	223582.010058617
9.08017355220112e-08	0.0134535288094722	574348.875880662	216055.906330766
9.70633016429694e-08	0.0143762684109143	593217.167810341	208479.400157946
1.03593932898425e-07	0.0153379719975864	613611.072468047	200865.509470586
1.10403544493356e-07	0.0163400113488013	635681.785206516	193227.856721693
1.17502337417614e-07	0.0173837920556065	659598.588992792	185580.61262445
1.24900803062315e-07	0.0184707535618689	685551.413067872	177938.431277698
1.32609727745455e-07	0.0196023691505307	713753.723473839	170316.37677327
1.40640197137427e-07	0.0207801458715227	744445.917612888	162729.841519401
1.49003600576674e-07	0.0220056244076723	777899.250794084	155194.456665619
1.5771163526564e-07	0.0232803788748737	814420.435447859	147725.995174663
1.66776310336782e-07	0.0246060165526527	854356.989634758	140340.268253017
1.76209950778339e-07	0.0259841775411844	898103.528109968	133053.016020837
1.86025201209182e-07	0.0274165343407045	946109.033856843	125879.793470273
1.96235029491986e-07	0.0289047913491728	998885.544226958	118835.852924513
2.06852730173672e-07	0.0304506842739511	1057018.33063289	111936.024363678
2.17891927741934e-07	0.0320559794531792	1121177.85532396	105194.595122938
2.29366579686445e-07	0.033722473082443	1192134.01754613	98625.1905881489
2.41290979353221e-07	0.0354519903422681	1270772.97748156	92240.657609602
2.53679758580406e-07	0.0372463844218941	1358117.3427435	86052.9524203491
2.66547890103673e-07	0.0391075354347317	1455349.89921104	80073.0348775603
2.79910689719234e-07	0.041037349220854	1563842.48695609	74310.770839085
2.93783818192436e-07	0.0430377560318262	1685190.02271175	68774.8444402418
3.08183282899734e-07	0.0451107090931479	1821251.93052187	63472.6819449348
3.2312543919183e-07	0.0472581830395608	1974201.90915305	58410.3887097597
3.38626991465696e-07	0.0494821722184638	2146587.98255925	53592.7006201204
3.54704993933107e-07	0.0517846888566711	2341405.3168469	49022.9511349349
3.71376851073405e-07	0.0541677610857739	2562185.2141999	44703.0548149902
3.88660317758096e-07	0.0566334308213807	2813102.53844855	40633.5079137439
4.06573499035004e-07	0.0591837514915587	3099108.51902551	36813.4062856468
4.251348495597e-07	0.0618207856098698	3426092.9004745	33240.4805223964
4.44363172662013e-07	0.0645466021884274	3801082.98530116	29911.1478728721
4.64277619035532e-07	0.0673632739865385	4232490.52934585	26820.5801457862
4.8489768503811e-07	0.0702728745905725	4730416.74339514	23962.7864481742
5.06243210591526e-07	0.0732774753208287	5307031.3484211	21330.7092869426
5.28334376668665e-07	0.0763791419613375	5977044.91277652	18916.3322667806
5.51191702356702e-07	0.079579931308666	6758299.11455859	16710.7973653064
5.74836041485085e-07	0.0828818875360229	7672509.49878906	14704.5295646428
5.99288578807283e-07	0.0862870383691395	8746197.3721113	12887.3664752274
6.2457082572558e-07	0.0897973910706403	10011868.5710485	11248.6905077223
6.50704615548521e-07	0.0934149282298986	11509511.105949	9777.56113609265
6.7771209827089e-07	0.0971416033556093	13288491.7822048	8462.84484996009
7.05615734866513e-07	0.100979336268647	15409987.8956628	7293.34051482144
7.34438291084568e-07	0.104930008293114	17950096.2748172	6257.89804141787
7.64202830740457e-07	0.108995457243806	21003831.1190112	5345.52850239028
7.94932708492795e-07	0.113177472208732	24690289.8456362	4545.50411742273
8.2665156209855e-07	0.117477788125744	29159337.336214	3847.44684607388
8.59383304138806e-07	0.121898080152725	34600298.8722857	3241.40466902468
8.93152113208286e-07	0.126439957831302	41253312.8492139	2717.91499027608
9.27982424562175e-07	0.131104959044516	49424186.6010936	2268.0549431055
9.63898920214557e-07	0.135894543769387	59503944.1457883	1883.47871826264
1.00092651848324e-06	0.140810087625886	71994622.5623839	1556.4423433252
1.03909036297655e-06	0.145852875224407	87543445.6226452	1279.81661801879
1.07841581101817e-06	0.151024093314382	106988293.543845	1047.08914310126
1.11892842150705e-06	0.156324823737389	131418336.624224	852.356565882714
1.16065394220993e-06	0.161756036188698	162255425.2881	690.308299679421
1.20361829648488e-06	0.167318580791886	201363415.70725	556.203057344335
1.24784756943508e-06	0.173013180491922	251195903.343319	445.83957178946
1.29336799349282e-06	0.178840423272764	314996427.961795	355.522863113658
1.34020593343452e-06	0.184800754206336	397070766.017011	282.027357178049
1.38838787082855e-06	0.190894467340491	503158870.576554	222.558071606763
1.43794038791832e-06	0.19712169743438	640944512.137561	174.710968840428
1.48889015094427e-06	0.203482411550467	820756246.923019	136.433440219914
1.54126389290908e-06	0.20997640051324	1056534977.67482	105.985737387784
1.59508839579139e-06	0.21660327024556	1367174257.1702	81.9040152235679
1.65039047221459e-06	0.22336243299441	1778383549.64597	62.9655000897008
1.70719694657769e-06	0.230253098458718	2325285368.381	48.1561541042706
1.76553463565681e-06	0.237274264832794	3056050669.40747	36.6410746013308
1.8254303286864e-06	0.244424709779813	4037000381.42497	27.7377513974768
1.88691076693063e-06	0.251702981350705	5359786620.8433	20.8922044527082
1.95000262275624e-06	0.259107388864652	7151532870.72183	15.6579423839214
2.01473247821923e-06	0.266635993768361	9589189157.59449	11.6776176166903
2.08112680317883e-06	0.274286600492131	12919907730.0649	8.66720626119147
2.14921193295323e-06	0.282056747321635	17490043744.3163	6.40250830676607
2.21901404553247e-06	0.289943697305225	23786506813.3311	4.70774487825642
2.29055913836531e-06	0.297944429217436	32495865401.9463	3.44602180324686
2.36387300473738e-06	0.306055628600209	44588971949.3338	2.51143055487708
2.43898120975948e-06	0.314273678904217	61442329837.6743	1.82256657159998
2.5159090659857e-06	0.322594652753494	85012388431.5533	1.31725905178204
2.59468160868202e-06	0.331014303357362	118086153061.259	0.948323835004967
2.67532357076715e-06	0.339528056094511	164641775853.431	0.680170401620773
2.75785935744839e-06	0.348131000294819	230367687818.789	0.486114107084713
2.84231302057633e-06	0.35681788124539	323410112354.464	0.346264590319946
2.92870823274291e-06	0.365583092448068	455449230073.541	0.245880144425582
3.01706826114874e-06	0.3744206681567	643247607170.805	0.174095232150562
3.10741594126617e-06	0.383324276223378	910875869110.842	0.122944001698781
3.19977365032567e-06	0.392287211284247	1292907361610.26	0.0866164698371845
3.29416328065395e-06	0.401302388317028	1838994722598.32	0.0608959787163405
3.39060621289304e-06	0.410362336604537	2620410115369.86	0.0427366917069458
3.48912328913053e-06	0.419459194141473	3739363668259.66	0.0299483836093911
3.58973478597165e-06	0.42858470252581	5342232343315.82	0.020962791115047
3.69246038758518e-06	0.437730202382073	7638259239709.78	0.0146614906094877
3.7973191587551e-06	0.446886629372266	10925854708317	0.0102498522095436
3.90432951797149e-06	0.456044510862315	15629373615548.7	0.00716525759313433
4.01350921059396e-06	0.46519396332942	22350202087025.9	0.00501062779615621
4.12487528212218e-06	0.474324690620456	31937177445542.6	0.0035065265841686
4.23844405160815e-06	0.483425983206613	45582819625597.7	0.0024568147403486
4.35423108524561e-06	0.492486718628507	64953528511432.7	0.00172413245738536
4.47225117017228e-06	0.501495363393506	92363759409630.6	0.00121247114932421
4.59251828852124e-06	0.510439976679139	131006029141426	0.000854832909442407
4.71504559175772e-06	0.519308216319808	185250187921998	0.000604523550428321
4.83984537533834e-06	0.528087347716103	261026216439916	0.000429029349377466
4.96692905372961e-06	0.536764256514713	366304222791552	0.000305723170394314
5.09630713582301e-06	0.545325466168265	511682392102852	0.000218861261425055
5.22798920078386e-06	0.553757161802026	711087211101417	0.000157487315378398
5.36198387437138e-06	0.562045222185281	982579049459423	0.000113972504250164
5.49829880576723e-06	0.570175262016444	1.34923884764839e+15	8.2999997000035e-05
5.63694064494978e-06	0.578132687155333	1.84008733640775e+15	6.08594652761345e-05
5.77791502065126e-06	0.585902765826201	2.49095691720404e+15	4.49573342192492e-05
5.92122651893456e-06	0.593470719100023	3.34519967445791e+15	3.34769417459061e-05
6.06687866242651e-06	0.600821834047054	4.45407689090409e+15	2.51427263701894e-05
6.21487389024361e-06	0.607941602711434	5.87664278155828e+15	1.90565722534856e-05
6.36521353864642e-06	0.614815889366246	7.67891780145716e+15	1.45841257316435e-05
6.51789782245768e-06	0.621431127235873	9.93215692405331e+15	1.12757727002869e-05
6.67292581727915e-06	0.627774543934363	1.27100678269625e+16	8.81161643672786e-06
6.8302954425414e-06	0.633834412270419	1.60849316420087e+16	6.96310639927918e-06
6.99000344541999e-06	0.639600319878822	2.01227251153314e+16	5.56622582492337e-06
7.15204538565092e-06	0.645063447656485	2.48775256851496e+16	4.5027089470776e-06
7.31641562127722e-06	0.650216843610832	3.03856730525371e+16	3.68684940619516e-06
7.48310729535781e-06	0.655055675953881	3.66603220794311e+16	3.05620695126856e-06
7.65211232366876e-06	0.659577447725051	4.36871067255144e+16	2.56503924644717e-06
7.82342138342606e-06	0.663782155382804	5.14216045487373e+16	2.17964297610703e-06
7.99702390305782e-06	0.667672375988455	5.97891281517937e+16	1.87503678226106e-06
8.17290805305299e-06	0.671253271797436	6.86870877799062e+16	1.63258981683396e-06
8.35106073791205e-06	0.67453250692567	7.79898151727004e+16	1.43831913040662e-06
8.5314675892243e-06	0.677520077586922	8.7555383499015e+16	1.28166182255003e-06
8.7141129598946e-06	0.680228064272425	9.72336768953137e+16	1.15458540293455e-06
8.89897991954149e-06	0.682670320250829	1.06874813904708e+17	1.05094014212365e-06
9.08605025108686e-06	0.684862115117307	1.16337036397094e+17	9.65985277015557e-07
9.27530444855591e-06	0.686819754338434	1.25493325300199e+17	8.96040649743944e-07
9.46672171610474e-06	0.688560195729257	1.34236251594056e+17	8.38229291017564e-07
9.66027996829117e-06	0.69010068181518	1.42480855511966e+17	7.90286216761849e-07
9.85595583160292e-06	0.691458403576701	1.50165611339841e+17	7.50415682683198e-07
1.00537246472553e-05	0.692650206791317	1.5725173841733e+17	7.17184050157431e-07
1.02535604752692e-05	0.693692347697212	1.63721241551748e+17	6.89438949941758e-07
1.04554360998386e-05	0.694600300524613	1.69574107114488e+17	6.66247972912223e-07
1.06593230359935e-05	0.69538861593054	1.74825059943414e+17	6.46851903476737e-07
1.08651915375659e-05	0.696070826712805	1.79500222668417e+17	6.30628839904123e-07
1.10730106064588e-05	0.696659395403843	1.83633935171984e+17	6.17066521428672e-07
1.12827480032239e-05	0.697165697377269	1.87265905373467e+17	6.05740830173833e-07
1.14943702589441e-05	0.697600032800585	1.90438785312222e+17	5.96299007688008e-07
1.17078426884207e-05	0.697971660969538	1.93196204833773e+17	5.88446438091202e-07
1.19231294046606e-05	0.69828885110002	1.95581250769486e+17	5.81936194558473e-07
1.21401933346571e-05	0.698558944390312	1.97635351089308e+17	5.76560691301924e-07
1.23589962364568e-05	0.698788422987143	1.99397508277994e+17	5.72144969864641e-07
1.25794987175023e-05	0.698982982311505	2.00903820812748e+17	5.68541285304386e-07
1.28016602542393e-05	0.699147603969975	2.02187232945401e+17	5.65624668828944e-07
1.30254392129732e-05	0.699286627162581	2.03277458372806e+17	5.63289302800141e-07
1.32507928719611e-05	0.699403817085258	2.04201030809151e+17	5.61445511873949e-07
1.34776774447197e-05	0.699502429311187	2.04981442547757e+17	5.60017276474801e-07
1.37060481045315e-05	0.699585269525655	2.05639339915435e+17	5.58940140047786e-07
1.39358590101256e-05	0.699654748293983	2.06192751574234e+17	5.58159455072697e-07
1.4167063332512e-05	0.699712930773088	2.06657331677819e+17	5.57628910816044e-07
1.4399613282943e-05	0.699761581446169	2.07046604885879e+17	5.57309284404786e-07
1.46334601419745e-05	0.699802204078774	2.0737220423724e+17	5.57167367379758e-07
1.48685542896001e-05	0.699836077173343	2.07644095991377e+17	5.57175073561808e-07
1.51048452364254e-05	0.699864285246978	2.0787078790111e+17	5.57308666175511e-07
1.53422816558524e-05	0.699887746281424	2.08059519114136e+17	5.57548103946534e-07
1.5580811417239e-05	0.699907235701032	2.08216431141743e+17	5.57876473299048e-07
1.58203816199984e-05	0.699923407228835	2.08346720189282e+17	5.58279522621913e-07
1.60609386286027e-05	0.699936810956589	2.08454771706703e+17	5.58745246467353e-07
1.63024281084502e-05	0.699947908944828	2.0854427836292e+17	5.59263546420338e-07
1.65447950625587e-05	0.699957088645766	2.08618342834293e+17	5.5982592447588e-07
1.67879838690426e-05	0.699964674417112	2.08679566871492e+17	5.60425242573647e-07
1.70319383193312e-05	0.699970937369685	2.08730128105153e+17	5.610555011836e-07
1.72766016570859e-05	0.699976103766959	2.08771845995534e+17	5.61711663062911e-07
1.75219166177687e-05	0.699980362171029	2.08806238244221e+17	5.62389494297243e-07
1.776782546882e-05	0.699983869507275	2.0883456888101e+17	5.63085439981567e-07
1.80142700503945e-05	0.699986756199413	2.08857889126035e+17	5.63796509822741e-07
1.82611918166109e-05	0.699989130507867	2.0887707201304e+17	5.64520188728317e-07
1.85085318772648e-05	0.699991082187362	2.08892841648915e+17	5.65254355810666e-07
1.87562310399549e-05	0.699992685564396	2.08905797879996e+17	5.65997224138275e-07
1.90042298525741e-05	0.699994002121631	2.08916437038932e+17	5.66747275259408e-07
1.92524686461131e-05	0.699995082664256	2.08925169357885e+17	5.67503221389948e-07
1.95008875777254e-05	0.699995969132737	2.08932333554673e+17	5.68263969698262e-07
1.97494266740029e-05	0.699996696117152	2.08938209028022e+17	5.69028577707854e-07
1.99980258744083e-05	0.699997292120205	2.08943026035886e+17	5.6979624230329e-07
2.02466250748138e-05	0.699997780609009	2.08946974176334e+17	5.70566260944441e-07
2.04951641710913e-05	0.6999981808897	2.08950209443004e+17	5.71338026501516e-07
2.07435831027036e-05	0.699998508833696	2.08952860086024e+17	5.72111002747317e-07
2.09918218962426e-05	0.699998777479973	2.08955031473825e+17	5.72884717736113e-07
2.12398207088618e-05	0.699998997533887	2.08956810120834e+17	5.73658749798667e-07
2.14875198715519e-05	0.699999177779814	2.08958267019977e+17	5.74432718169373e-07
2.17348599322057e-05	0.699999325422114	2.08959460396746e+17	5.7520627841551e-07
2.19817816984222e-05	0.699999446366556	2.08960437982679e+17	5.75979115811173e-07
2.22282262799967e-05	0.699999545452372	2.08961238890181e+17	5.76750937275651e-07
2.2474135131048e-05	0.699999626643411	2.08961895157041e+17	5.77521474281022e-07
2.27194500917308e-05	0.69999969318546	2.08962433017699e+17	5.78290471454235e-07
2.29641134294855e-05	0.699999747735616	2.08962873948679e+17	5.79057688900023e-07
2.32080678797741e-05	0.699999792468584	2.08963235527636e+17	5.79822898162048e-07
2.3451256686258e-05	0.699999829163953	2.0896353213871e+17	5.80585881090778e-07
2.36936236403665e-05	0.699999859277812	2.08963775551309e+17	5.81346430053455e-07
2.3935113120214e-05	0.699999884001469	2.08963975394703e+17	5.82104343376487e-07
2.41756701288183e-05	0.69999990430958	2.08964139547001e+17	5.82859426716009e-07
2.44152403315777e-05	0.699999920999567	2.08964274453751e+17	5.83611491694737e-07
2.46537700929643e-05	0.699999934723889	2.08964385388815e+17	5.84360355849937e-07
2.48912065123913e-05	0.699999946016464	2.08964476667853e+17	5.85105839080184e-07
2.51274974592166e-05	0.699999955314271	2.08964551822996e+17	5.85847769969014e-07
2.53625916068422e-05	0.699999962975026	2.08964613745692e+17	5.86585979785063e-07
2.55964384658737e-05	0.699999969291636	2.08964664803517e+17	5.87320302398879e-07
2.58289884163047e-05	0.699999974504006	2.08964706935658e+17	5.88050576592968e-07
2.60601927386911e-05	0.699999978808702	2.08964741730967e+17	5.88776644945877e-07
2.62900036442852e-05	0.699999982366837	2.08964770491748e+17	5.89498353743539e-07
2.6518374304097e-05	0.699999985310526	2.08964794285884e+17	5.90215552926844e-07
2.67452588768556e-05	0.699999987748151	2.08964813989443e+17	5.90928096090817e-07
2.69706125358435e-05	0.699999989768671	2.08964830321493e+17	5.91635840420821e-07
2.71943914945774e-05	0.699999991445142	2.08964843872557e+17	5.92338646759016e-07
2.74165530313144e-05	0.699999992837596	2.0896485512788e+17	5.9303637955855e-07
2.76370555123599e-05	0.699999993995393	2.08964864486439e+17	5.93728906169879e-07
2.78558584141596e-05	0.699999994959144	2.089648722765e+17	5.94416100323025e-07
2.80729223441561e-05	0.699999995762285	2.08964878768333e+17	5.95097836002836e-07
2.8288209060396e-05	0.699999996432366	2.08964884184625e+17	5.95773992859268e-07
2.85016814898726e-05	0.699999996992103	2.08964888708995e+17	5.96444453925423e-07
2.87133037455928e-05	0.699999997460242	2.0896489249297e+17	5.97109106071074e-07
2.89230411423579e-05	0.699999997852266	2.08964895661695e+17	5.97767840002593e-07
2.91308602112508e-05	0.699999998180973	2.08964898318617e+17	5.98420550301067e-07
2.93367287128232e-05	0.69999999845695	2.08964900549326e+17	5.99067135476141e-07
2.95406156489781e-05	0.699999998688968	2.08964902424697e+17	5.9970749796269e-07
2.97424912735475e-05	0.699999998884293	2.0896490400348e+17	6.00341544169639e-07
2.99423271015614e-05	0.699999999048956	2.08964905334422e+17	6.00969184495589e-07
3.01400959172138e-05	0.699999999187966	2.08964906458008e+17	6.01590333342056e-07
3.03357717805255e-05	0.699999999305488	2.08964907407898e+17	6.02204909140369e-07
3.0529330032712e-05	0.699999999404986	2.08964908212108e+17	6.02812834368856e-07
3.07207473002608e-05	0.69999999948935	2.08964908893978e+17	6.03414035545412e-07
3.09100014977298e-05	0.699999999560987	2.0896490947298e+17	6.04008443243634e-07
3.10970718292752e-05	0.699999999621909	2.08964909965371e+17	6.04595992114177e-07
3.12819387889221e-05	0.699999999673797	2.08964910384742e+17	6.05176621074595e-07
3.14645841595924e-05	0.699999999718059	2.08964910742471e+17	6.05750272419552e-07
3.16449910109046e-05	0.699999999755874	2.0896491104809e+17	6.06316892957716e-07
3.18231436957637e-05	0.699999999788232	2.08964911309598e+17	6.06876433953413e-07
3.19990278457589e-05	0.699999999815964	2.08964911533712e+17	6.07428850043214e-07
3.21726303653906e-05	0.699999999839769	2.08964911726086e+17	6.07974100279927e-07
3.23439394251479e-05	0.699999999860236	2.08964911891476e+17	6.08512147107757e-07
3.25129444534589e-05	0.699999999877861	2.08964912033896e+17	6.09042957502384e-07
3.26796361275395e-05	0.699999999893063	2.08964912156733e+17	6.09566502122394e-07
3.28440063631658e-05	0.699999999906197	2.08964912262851e+17	6.10082755671255e-07
