Position  (cm)	V (V)	n (cm-3)	p (cm-3)
0	0	5643568.65404886	5643568.65404885
2.12151739152832e-09	-7.14507509106503e-26	4338391770.15554	4338391770.15554
4.34707627935975e-09	-1.46405523549526e-25	8883128618.99313	8883128618.99313
6.68121450657862e-09	-2.25017148290391e-25	13649048153.695	13649048153.695
9.12863752259283e-09	-3.07444100333545e-25	18645678735.1026	18645678735.1026
1.16942230432444e-08	-3.9385065665406e-25	23882891825.3884	23882891825.3884
1.43830257664662e-08	-4.84407054820752e-25	29370910820.2313	29370910820.2313
1.72002821403399e-08	-5.79289653579974e-25	35120319923.4198	35120319923.4198
2.01514151801996e-08	-6.78681095091233e-25	41142073052.4609	41142073052.4609
2.32420393311509e-08	-7.82770468692349e-25	47447502762.9475	47447502762.9475
2.64779653721458e-08	-8.91753476064186e-25	54048329178.6842	54048329178.6842
2.9865205357556e-08	-1.00583259765828e-24	60956668913.8782	60956668913.8782
3.34099775918348e-08	-1.12521726023886e-24	68185043972.682	68185043972.682
3.71187116327228e-08	-1.25012400538623e-24	75746390610.7803	75746390610.7803
4.09980533181195e-08	-1.38077665879714e-24	83654068142.711	83654068142.711
4.50548698114988e-08	-1.51740650020977e-24	91921867677.7741	91921867677.7741
4.92962546604839e-08	-1.66025243377184e-24	100564020766.497	100564020766.497
5.37295328629467e-08	-1.80956115866219e-24	109595207938.76	109595207938.76
5.83622659346949e-08	-1.96558733976577e-24	119030567113.693	119030567113.693
6.32022569725685e-08	-2.12859377819415e-24	128885701860.58	128885701860.58
6.82575557064784e-08	-2.29885102513685e-24	139176689489.053	139176689489.053
7.35364635336391e-08	-2.47663743737977e-24	149920088945.833	149920088945.833
7.90475385279966e-08	-2.6622404847224e-24	161132948494.429	161132948494.429
8.47996004175491e-08	-2.8559570290844e-24	172832813153.09	172832813153.09
9.08017355220112e-08	-3.05809289751967e-24	185037731865.455	185037731865.455
9.70633016429694e-08	-3.26896304642848e-24	197766264377.239	197766264377.239
1.03593932898425e-07	-3.48889172381576e-24	211037487791.382	211037487791.382
1.10403544493356e-07	-3.71821262932473e-24	224871002773.091	224871002773.091
1.17502337417614e-07	-3.95726907178437e-24	239286939375.133	239286939375.133
1.24900803062315e-07	-4.20641412396167e-24	254305962452.949	254305962452.949
1.32609727745455e-07	-4.46601077418992e-24	269949276637.896	269949276637.896
1.40640197137427e-07	-4.73643207457207e-24	286238630836.287	286238630836.287
1.49003600576674e-07	-5.01806128543233e-24	303196322220.658	303196322220.658
1.5771163526564e-07	-5.31129201567511e-24	320845199679.014	320845199679.014
1.66776310336782e-07	-5.6165283587097e-24	339208666686.658	339208666686.658
1.76209950778339e-07	-5.9341850235966e-24	358310683564.574	358310683564.574
1.86025201209182e-07	-6.26468746105116e-24	378175769087.232	378175769087.232
1.96235029491986e-07	-6.60847198394768e-24	398829001402.076	398829001402.076
2.06852730173672e-07	-6.96598477826325e-24	420296018222.034	420296018222.034
2.17891927741934e-07	-7.33768178139275e-24	442603016251.74	442603016251.74
2.29366579686445e-07	-7.72403100766326e-24	465776749807.354	465776749807.354
2.41290979353221e-07	-8.12551286546643e-24	489844528589.382	489844528589.382
2.53679758580406e-07	-8.54242129797777e-24	514834214567.142	514834214567.142
2.66547890103673e-07	-8.97502542730225e-24	540774217933.152	540774217933.152
2.79910689719234e-07	-9.42400918669613e-24	567693492085.12	567693492085.12
2.93783818192436e-07	-9.89010410288492e-24	595621527592.979	595621527592.979
3.08183282899734e-07	-1.03738454057491e-23	624588345107.949	624588345107.949
3.2312543919183e-07	-1.08757798807246e-23	654624487170.509	654624487170.509
3.38626991465696e-07	-1.13964658995814e-23	685761008874.004	685761008874.004
3.54704993933107e-07	-1.19364684091353e-23	718029467340.481	718029467340.481
3.71376851073405e-07	-1.24963580042125e-23	751461909965.581	751461909965.581
3.88660317758096e-07	-1.30767211146943e-23	786090861389.307	786090861389.307
4.06573499035004e-07	-1.36781609130429e-23	821949309149.936	821949309149.936
4.251348495597e-07	-1.43012920656848e-23	859070687978.616	859070687978.616
4.44363172662013e-07	-1.49467406923902e-23	897488862692.794	897488862692.794
4.64277619035532e-07	-1.56151443118652e-23	937238109647.305	937238109647.305
4.8489768503811e-07	-1.63071452577322e-23	978353096702.662	978353096702.662
5.06243210591526e-07	-1.70233894243789e-23	1020868861671.12	1020868861671.12
5.28334376668665e-07	-1.77645393409103e-23	1064820789202.16	1064820789202.16
5.51191702356702e-07	-1.85312752120332e-23	1110244586070.25	1110244586070.25
5.74836041485085e-07	-1.93242880637356e-23	1157176254829.28	1157176254829.28
5.99288578807283e-07	-2.01442796045225e-23	1205652065799.38	1205652065799.38
6.2457082572558e-07	-2.09919538749414e-23	1255708527353.96	1255708527353.96
6.50704615548521e-07	-2.1868015636485e-23	1307382354476.45	1307382354476.45
6.7771209827089e-07	-2.27731867000298e-23	1360710435558.36	1360710435558.36
7.05615734866513e-07	-2.37082071130611e-23	1415729797412.8	1415729797412.8
7.34438291084568e-07	-2.46738264948122e-23	1472477568479.83	1472477568479.83
7.64202830740457e-07	-2.56707938568575e-23	1530990940202.73	1530990940202.73
7.94932708492795e-07	-2.66998556457763e-23	1591307126557.39	1591307126557.39
8.2665156209855e-07	-2.77617754739458e-23	1653463321719.88	1653463321719.88
8.59383304138806e-07	-2.88573354778431e-23	1717496655860.46	1717496655860.46
8.93152113208286e-07	-2.99873258054541e-23	1783444149056.18	1783444149056.18
9.27982424562175e-07	-3.11525321723071e-23	1851342663317.34	1851342663317.34
9.63898920214557e-07	-3.23537334892656e-23	1921228852727.6	1921228852727.6
1.00092651848324e-06	-3.35917258218729e-23	1993139111700.99	1993139111700.99
1.03909036297655e-06	-3.48673103110698e-23	2067109521364	2067109521364
1.07841581101817e-06	-3.61812781478211e-23	2143175794074.86	2143175794074.86
1.11892842150705e-06	-3.75344375631658e-23	2221373216097.29	2221373216097.29
1.16065394220993e-06	-3.89276155615339e-23	2301736588450.57	2301736588450.57
1.20361829648488e-06	-4.03616275252456e-23	2384300165963.05	2384300165963.05
1.24784756943508e-06	-4.18372741262993e-23	2469097594561.47	2469097594561.47
1.29336799349282e-06	-4.33553728301978e-23	2556161846833.77	2556161846833.77
1.34020593343452e-06	-4.49167417246998e-23	2645525155909	2645525155909
1.38838787082855e-06	-4.65221798525386e-23	2737218947703.26	2737218947703.26
1.43794038791832e-06	-4.81725029334531e-23	2831273771587.1	2831273771587.1
1.48889015094427e-06	-4.98435748101854e-23	2927719229535.44	2927719229535.44
1.54126389290908e-06	-5.15091398705488e-23	3026583903827.49	3026583903827.49
1.59508839579139e-06	-5.31949900332479e-23	3127895283370.46	3127895283370.46
1.65039047221459e-06	-5.49291901892951e-23	3231679688727.33	3231679688727.33
1.70719694657769e-06	-5.67127545115988e-23	3337962195935.33	3337962195935.33
1.76553463565681e-06	-5.85467019594907e-23	3446766559208.69	3446766559208.69
1.8254303286864e-06	-6.04320553736838e-23	3558115132625.41	3558115132625.41
1.88691076693063e-06	-6.23697946101781e-23	3672028790905.15	3672028790905.15
1.95000262275624e-06	-6.43608984501185e-23	3788526849391.4	3788526849391.4
2.01473247821923e-06	-6.64063965757166e-23	3907626983358.27	3907626983358.27
2.08112680317883e-06	-6.85073198745941e-23	4029345146768.85	4029345146768.85
2.14921193295323e-06	-7.06646993798346e-23	4153695490618.66	4153695490618.66
2.21901404553247e-06	-7.28795655029806e-23	4280690281004.34	4280690281004.34
2.29055913836531e-06	-7.51529476186659e-23	4410339817064.4	4410339817064.4
2.36387300473738e-06	-7.7485874002485e-23	4542652348944.96	4542652348944.96
2.43898120975948e-06	-7.98793703410566e-23	4677633995950.01	4677633995950.01
2.5159090659857e-06	-8.23344580099246e-23	4815288665041.5	4815288665041.5
2.59468160868202e-06	-8.48521529092888e-23	4955617969860.7	4955617969860.7
2.67532357076715e-06	-8.74334641739375e-23	5098621150447.84	5098621150447.84
2.75785935744839e-06	-9.00793930644356e-23	5244294993842.51	5244294993842.51
2.84231302057633e-06	-9.27909326822315e-23	5392633755752.42	5392633755752.42
2.92870823274291e-06	-9.5569067517205e-23	5543629083483.04	5543629083483.04
3.01706826114874e-06	-9.84147724387537e-23	5697269940325.15	5697269940325.15
3.10741594126617e-06	-1.01329010521501e-22	5853542531601.41	5853542531601.41
3.19977365032567e-06	-1.04312730394522e-22	6012430232576.92	6012430232576.92
3.29416328065395e-06	-1.07366862977001e-22	6173913518442.08	6173913518442.08
3.39060621289304e-06	-1.10492320178142e-22	6337969896578.88	6337969896578.88
3.48912328913053e-06	-1.13690046414819e-22	6504573841324.36	6504573841324.36
3.58973478597165e-06	-1.16960964988469e-22	6673696731446.62	6673696731446.62
3.69246038758518e-06	-1.20305914493105e-22	6845306790550.53	6845306790550.53
3.7973191587551e-06	-1.23725756706992e-22	7019369030630.8	7019369030630.8
3.90432951797149e-06	-1.27221335241148e-22	7195845198990.49	7195845198990.49
4.01350921059396e-06	-1.30793423510238e-22	7374693728742.83	7374693728742.83
4.12487528212218e-06	-1.34442775315207e-22	7555869693112.95	7555869693112.95
4.23844405160815e-06	-1.38170119732725e-22	7739324763754.82	7739324763754.82
4.35423108524561e-06	-1.41976212599907e-22	7925007173296.33	7925007173296.33
4.47225117017228e-06	-1.45861841874359e-22	8112861682322.5	8112861682322.5
4.59251828852124e-06	-1.49827724599176e-22	8302829551003.02	8302829551003.02
4.71504559175772e-06	-1.53874502247021e-22	8494848515566.4	8494848515566.4
4.83984537533834e-06	-1.58002843637011e-22	8688852769817.49	8688852769817.49
4.96692905372961e-06	-1.62213387902552e-22	8884772951889.5	8884772951889.5
5.09630713582301e-06	-1.66506669183963e-22	9082536136415.38	9082536136415.38
5.22798920078386e-06	-1.70883224428716e-22	9282065832295.6	9282065832295.6
5.36198387437138e-06	-1.75343569092273e-22	9483281986232.04	9483281986232.04
5.49829880576723e-06	-1.79888143438588e-22	9686100992188.34	9686100992188.34
5.63694064494978e-06	-1.84517399855547e-22	9890435706928.03	9890435706928.03
5.77791502065126e-06	-1.89231838400528e-22	10096195471771.3	10096195471771.3
5.92122651893456e-06	-1.94031948057436e-22	10303286140700.6	10303286140700.6
6.06687866242651e-06	-1.98918161799423e-22	10511610114932.8	10511610114932.8
6.21487389024361e-06	-2.03890896338641e-22	10721066384065.8	10721066384065.8
6.36521353864642e-06	-2.08950533366442e-22	10931550573889.7	10931550573889.7
6.51789782245768e-06	-2.14097381889564e-22	11142955000945.3	11142955000945.3
6.67292581727915e-06	-2.19331610913504e-22	11355168733892.6	11355168733892.6
6.8302954425414e-06	-2.24653180547511e-22	11568077661741.7	11568077661741.7
6.99000344541999e-06	-2.30061961182281e-22	11781564568979.1	11781564568979.1
7.15204538565092e-06	-2.35557790123652e-22	11995509217610.2	11995509217610.2
7.31641562127722e-06	-2.41140382152081e-22	12209788436119.9	12209788436119.9
7.48310729535781e-06	-2.46809322639687e-22	12424276215337.4	12424276215337.4
7.65211232366876e-06	-2.5256405357614e-22	12638843811173	12638843811173
7.82342138342606e-06	-2.58403786623422e-22	12853359854178.9	12853359854178.9
7.99702390305782e-06	-2.64327628935813e-22	13067690465866.9	13067690465866.9
8.17290805305299e-06	-2.70334704634934e-22	13281699381696.4	13281699381696.4
8.35106073791205e-06	-2.76424062274606e-22	13495248080631.8	13495248080631.8
8.5314675892243e-06	-2.82594653125414e-22	13708195921144.3	13708195921144.3
8.7141129598946e-06	-2.88845349586008e-22	13920400283519.8	13920400283519.8
8.89897991954149e-06	-2.95174928524388e-22	14131716718312	14131716718312
9.08605025108686e-06	-3.01582191121122e-22	14341999100764.5	14341999100764.5
9.27530444855591e-06	-3.08065999422868e-22	14551099791002.9	14551099791002.9
9.46672171610474e-06	-3.14625034923722e-22	14758869799784.8	14758869799784.8
9.66027996829117e-06	-3.21257761444974e-22	14965158959573	14965158959573
9.85595583160292e-06	-3.27962630131983e-22	15169816100682.2	15169816100682.2
1.00537246472553e-05	-3.34738377750324e-22	15372689232230.4	15372689232230.4
1.02535604752692e-05	-3.4158414844279e-22	15573625727609	15573625727609
1.04554360998386e-05	-3.48499207659408e-22	15772472514172.3	15772472514172.3
1.06593230359935e-05	-3.55482826665415e-22	15969076266825.1	15969076266825.1
1.08651915375659e-05	-3.62534347787858e-22	16163283605177.9	16163283605177.9
1.10730106064588e-05	-3.69653143532225e-22	16354941293920	16354941293920
1.12827480032239e-05	-3.76838428089763e-22	16543896446049.4	16543896446049.4
1.14943702589441e-05	-3.84088950090466e-22	16729996728583.8	16729996728583.8
1.17078426884207e-05	-3.91403024790799e-22	16913090570365.7	16913090570365.7
1.19231294046606e-05	-3.97022164388188e-22	17093027371562.7	17093027371562.7
1.21401933346571e-05	-3.99144199252567e-22	17269657714452.4	17269657714452.4
1.23589962364568e-05	-3.99524975994831e-22	17442833575075.4	17442833575075.4
1.25794987175023e-05	-3.99964133577892e-22	17612408535327.7	17612408535327.7
1.28016602542393e-05	-4.00461817977772e-22	17778237995058.7	17778237995058.7
1.30254392129732e-05	-4.01019592441147e-22	17940179383734.5	17940179383734.5
1.32507928719611e-05	-4.01639716803362e-22	18098092371221.4	18098092371221.4
1.34776774447197e-05	-4.02324820081276e-22	18251839077240.5	18251839077240.5
1.37060481045315e-05	-4.03077560456524e-22	18401284279042.7	18401284279042.7
1.39358590101256e-05	-4.03900504649704e-22	18546295616850.6	18546295616850.6
1.4167063332512e-05	-4.04796227011695e-22	18686743796617.4	18686743796617.4
1.4399613282943e-05	-4.05767393093545e-22	18822502789649	18822502789649
1.46334601419745e-05	-4.06816827446027e-22	18953450028645.3	18953450028645.3
1.48685542896001e-05	-4.07947563755141e-22	19079466599713.5	19079466599713.5
1.51048452364254e-05	-4.09162626647776e-22	19200437429918	19200437429918
1.53422816558524e-05	-4.1046479005205e-22	19316251469935	19316251469935
1.5580811417239e-05	-4.11856969701372e-22	19426801871387.5	19426801871387.5
1.58203816199984e-05	-4.13342305364505e-22	19531986158449.3	19531986158449.3
1.60609386286027e-05	-4.1492325200423e-22	19631706393313.6	19631706393313.6
1.63024281084502e-05	-4.1660107149833e-22	19725869335136.3	19725869335136.3
1.65447950625587e-05	-4.18376741047887e-22	19814386592076.3	19814386592076.3
1.67879838690426e-05	-4.20251978624849e-22	19897174766069.8	19897174766069.8
1.70319383193312e-05	-4.22229396396421e-22	19974155589991.5	19974155589991.5
1.72766016570859e-05	-4.24310642008868e-22	20045256056871.8	20045256056871.8
1.75219166177687e-05	-4.26494209262024e-22	20110408540857.4	20110408540857.4
1.776782546882e-05	-4.28777201199529e-22	20169550909622	20169550909622
1.80142700503945e-05	-4.31157777659734e-22	20222626627951.5	20222626627951.5
1.82611918166109e-05	-4.3363481864663e-22	20269584852251.7	20269584852251.7
1.85085318772648e-05	-4.36206672873734e-22	20310380515746.4	20310380515746.4
1.87562310399549e-05	-4.38870367487631e-22	20344974404155.2	20344974404155.2
1.90042298525741e-05	-4.41621576488423e-22	20373333221666.3	20373333221666.3
1.92524686461131e-05	-4.44455352327036e-22	20395429647039	20395429647039
1.95008875777254e-05	-4.47366691384623e-22	20411242379699.3	20411242379699.3
1.97494266740029e-05	-4.50350478790014e-22	20420756175712.6	20420756175712.6
1.99980258744083e-05	-4.53401454333186e-22	20423961873545.4	20423961873545.4
2.02466250748138e-05	-4.56513665362841e-22	20420856409551.3	20420856409551.3
2.04951641710913e-05	-4.59679966979193e-22	20411442823143	20411442823143
2.07435831027036e-05	-4.62892375117716e-22	20395730251638.1	20395730251638.1
2.09918218962426e-05	-4.66141509964726e-22	20373733914790	20373733914790
2.12398207088618e-05	-4.6941601511493e-22	20345475089044.7	20345475089044.7
2.14875198715519e-05	-4.72703710369003e-22	20310981071584.4	20310981071584.4
2.17348599322057e-05	-4.75992422295254e-22	20270285134250.3	20270285134250.3
2.19817816984222e-05	-4.79270042793107e-22	20223426467456.8	20223426467456.8
2.22282262799967e-05	-4.82524684886815e-22	20170450114235.8	20170450114235.8
2.2474135131048e-05	-4.85744591746799e-22	20111406894576.2	20111406894576.2
2.27194500917308e-05	-4.88918260629769e-22	20046353320242.2	20046353320242.2
2.29641134294855e-05	-4.9203416579037e-22	19975351500283	19975351500283
2.32080678797741e-05	-4.95080378605965e-22	19898469037462.8	19898469037462.8
2.3451256686258e-05	-4.98045474476578e-22	19815778915867.6	19815778915867.6
2.36936236403665e-05	-5.00919602757705e-22	19727359379959.6	19727359379959.6
2.3935113120214e-05	-5.03695300002248e-22	19633293805376.2	19633293805376.2
2.41756701288183e-05	-5.0636670524044e-22	19533670561784.1	19533670561784.1
2.44152403315777e-05	-5.08927654335237e-22	19428582868119.9	19428582868119.9
2.46537700929643e-05	-5.1137114481919e-22	19318128640564.8	19318128640564.8
2.48912065123913e-05	-5.13689214755967e-22	19202410333615.9	19202410333615.9
2.51274974592166e-05	-5.15872904408451e-22	19081534774631.3	19081534774631.3
2.53625916068422e-05	-5.17912352333407e-22	18955612992240.3	18955612992240.3
2.55964384658737e-05	-5.19798209080363e-22	18824760039021.5	18824760039021.5
2.58289884163047e-05	-5.21523073751263e-22	18689094808861	18689094808861
2.60601927386911e-05	-5.23080644989829e-22	18548739849415.7	18548739849415.7
2.62900036442852e-05	-5.2446494770531e-22	18403821170111.3	18403821170111.3
2.6518374304097e-05	-5.25670498691102e-22	18254468046113.7	18254468046113.7
2.67452588768556e-05	-5.26692504922334e-22	18100812818717.1	18100812818717.1
2.69706125358435e-05	-5.27527081724067e-22	17942990692596.9	17942990692596.9
2.71943914945774e-05	-5.28171108185132e-22	17781139530377.3	17781139530377.3
2.74165530313144e-05	-5.28621674435645e-22	17615399644967.1	17615399644967.1
2.76370555123599e-05	-5.28876742230158e-22	17445913590113.5	17445913590113.5
2.78558584141596e-05	-5.28934666638841e-22	17272825949628.3	17272825949628.3
2.80729223441561e-05	-5.2879362646657e-22	17096283125732.7	17096283125732.7
2.8288209060396e-05	-5.28452281896905e-22	16916433126967.1	16916433126967.1
2.85016814898726e-05	-5.27909848301091e-22	16733425356106.1	16733425356106.1
2.87133037455928e-05	-5.2716712537488e-22	16547410398513	16547410398513
2.89230411423579e-05	-5.26225400752298e-22	16358539811360.3	16358539811360.3
2.91308602112508e-05	-5.25085708024583e-22	16166965914135.6	16166965914135.6
2.93367287128232e-05	-5.23750755000404e-22	15972841580842.3	15972841580842.3
2.95406156489781e-05	-5.22224439783818e-22	15776320034292.7	15776320034292.7
2.97424912735475e-05	-5.20509803596119e-22	15577554642883	15577554642883
2.99423271015614e-05	-5.18609185369141e-22	15376698720223.3	15376698720223.3
3.01400959172138e-05	-5.16526058763801e-22	15173905327986.2	15173905327986.2
3.03357717805255e-05	-5.14265030277656e-22	14969327082321	14969327082321
3.0529330032712e-05	-5.11830010354224e-22	14763115964167.8	14763115964167.8
3.07207473002608e-05	-5.09224311806048e-22	14555423133787.8	14555423133787.8
3.09100014977298e-05	-5.06452674696784e-22	14346398749813.4	14346398749813.4
3.10970718292752e-05	-5.03521211491395e-22	14136191793102.1	14136191793102.1
3.12819387889221e-05	-5.00435063670192e-22	13924949895663.6	13924949895663.6
3.14645841595924e-05	-4.97198109413272e-22	13712819174909.6	13712819174909.6
3.16449910109046e-05	-4.93815155583712e-22	13499944073459.8	13499944073459.8
3.18231436957637e-05	-4.90292349136305e-22	13286467204719.6	13286467204719.6
3.19990278457589e-05	-4.8663556883603e-22	13072529204424.4	13072529204424.4
3.21726303653906e-05	-4.82850424270021e-22	12858268588330	12858268588330
3.23439394251479e-05	-4.7894380178802e-22	12643821616207.2	12643821616207.2
3.25129444534589e-05	-4.74923590951215e-22	12429322162281.9	12429322162281.9
3.26796361275395e-05	-4.7079772454285e-22	12214901592243	12214901592243
3.28440063631658e-05	-4.66573201201936e-22	12000688646920.5	12000688646920.5
3.30060483033967e-05	-4.62256047379935e-22	11786809332720.8	11786809332720.8
3.31657563062753e-05	-4.57853074120654e-22	11573386818884	11573386818884
3.33231259315375e-05	-4.53371742860383e-22	11360541341614.5	11360541341614.5
