Position  (cm)	V (V)	n (cm-3)	p (cm-3)
0	0	363569.099107626	363569.099107614
2.02184590894066e-09	-2.28760987713839e-69	363569.099107626	363569.099107614
4.14335823799513e-09	-4.68798732086249e-69	363569.099107626	363569.099107614
6.36891181508354e-09	-7.20608394608675e-69	363569.099107626	363569.099107614
8.70304447246179e-09	-9.84702766542788e-69	363569.099107626	363569.099107614
1.11504616483094e-08	-1.26161348650087e-68	363569.099107626	363569.099107614
1.37160410468289e-08	-1.55189254414348e-68	363569.099107626	363569.099107614
1.64048373538914e-08	-1.85611425754248e-68	363569.099107626	363569.099107614
1.92220870050832e-08	-2.17486894506607e-68	363569.099107626	363569.099107614
2.21732130027976e-08	-2.50877368091032e-68	363569.099107626	363569.099107614
2.52638297787426e-08	-2.85846223412e-68	363569.099107626	363569.099107614
2.84997480980044e-08	-3.22458807959476e-68	363569.099107626	363569.099107614
3.18869800006108e-08	-3.60783201419894e-68	363569.099107626	363569.099107614
3.54317437761696e-08	-4.0089012039601e-68	363569.099107626	363569.099107614
3.91404689670858e-08	-4.42852244691937e-68	363569.099107626	363569.099107614
4.30198013953979e-08	-4.8674410060327e-68	363569.099107626	363569.099107614
4.70766082081932e-08	-5.32643770386063e-68	363569.099107626	363569.099107614
5.13179829361677e-08	-5.80632163060192e-68	363569.099107626	363569.099107614
5.57512505597142e-08	-6.30791647310666e-68	363569.099107626	363569.099107614
6.03839725765966e-08	-6.83209034331819e-68	363569.099107626	363569.099107614
6.52239520650348e-08	-7.3797139095503e-68	363569.099107626	363569.099107614
7.02792387357311e-08	-7.95167610190849e-68	363569.099107626	363569.099107614
7.55581339660905e-08	-8.54895787038801e-68	363569.099107626	363569.099107614
8.10691958096376e-08	-9.17250698223557e-68	363569.099107626	363569.099107614
8.68212439733243e-08	-9.823310518962e-68	363569.099107626	363569.099107614
9.28233647551831e-08	-1.0502387021039e-67	363569.099107626	363569.099107614
9.90849159344704e-08	-1.12107948300593e-67	363569.099107626	363569.099107614
1.05615531606198e-07	-1.19496613458708e-67	363569.099107626	363569.099107614
1.12425126951681e-07	-1.27200893237945e-67	363569.099107626	363569.099107614
1.19523902936438e-07	-1.35232215654915e-67	363569.099107626	363569.099107614
1.26922350926539e-07	-1.43602896721262e-67	363569.099107626	363569.099107614
1.34631257214247e-07	-1.52324438168414e-67	363569.099107626	363569.099107614
1.426617074435e-07	-1.61410126261766e-67	363569.099107626	363569.099107614
1.51025090925564e-07	-1.70873700495576e-67	363569.099107626	363569.099107614
1.5973310483497e-07	-1.80726944205784e-67	363569.099107626	363569.099107614
1.68797758275519e-07	-1.90984180804044e-67	363569.099107626	363569.099107614
1.78231376206037e-07	-2.01658479929211e-67	363569.099107626	363569.099107614
1.88046603215225e-07	-2.12765538194219e-67	363569.099107626	363569.099107614
1.98256407134813e-07	-2.24319821973033e-67	363569.099107626	363569.099107614
2.08874082479995e-07	-2.363378050252e-67	363569.099107626	363569.099107614
2.19913253705957e-07	-2.48832239761086e-67	363569.099107626	363569.099107614
2.31387878269063e-07	-2.61819863206518e-67	363569.099107626	363569.099107614
2.43312249481223e-07	-2.75317660291777e-67	363569.099107626	363569.099107614
2.55700999145667e-07	-2.89341648155794e-67	363569.099107626	363569.099107614
2.68569099962338e-07	-3.03908263488777e-67	363569.099107626	363569.099107614
2.81931867690899e-07	-3.19036317643128e-67	363569.099107626	363569.099107614
2.95804963059328e-07	-3.34742027799157e-67	363569.099107626	363569.099107614
3.10204393405883e-07	-3.51049018138167e-67	363569.099107626	363569.099107614
3.25146514042238e-07	-3.67973891828101e-67	363569.099107626	363569.099107614
3.40648029325503e-07	-3.85538746427172e-67	363569.099107626	363569.099107614
3.56725993426758e-07	-4.03754416871433e-67	363569.099107626	363569.099107614
3.73397810783814e-07	-4.22643160753815e-67	363569.099107626	363569.099107614
3.90681236225808e-07	-4.42225959309595e-67	363569.099107626	363569.099107614
4.08594374757362e-07	-4.62526122835706e-67	363569.099107626	363569.099107614
4.2715568099001e-07	-4.83565577640638e-67	363569.099107626	363569.099107614
4.46383958208709e-07	-5.05360035041637e-67	363569.099107626	363569.099107614
4.66298357061353e-07	-5.27929710019389e-67	363569.099107626	363569.099107614
4.8691837385927e-07	-5.51301599030891e-67	363569.099107626	363569.099107614
5.08263848476895e-07	-5.75489772960414e-67	363569.099107626	363569.099107614
5.30354961838956e-07	-6.00529309243861e-67	363569.099107626	363569.099107614
5.5321223298367e-07	-6.2643684007395e-67	363569.099107626	363569.099107614
5.76856515690716e-07	-6.53242271125968e-67	363569.099107626	363569.099107614
6.01308994663012e-07	-6.80964052386741e-67	363569.099107626	363569.099107614
6.26591181251512e-07	-7.09632944316984e-67	363569.099107626	363569.099107614
6.52724908712662e-07	-7.39289570523295e-67	363569.099107626	363569.099107614
6.79732326988386e-07	-7.6993358729951e-67	363569.099107626	363569.099107614
7.07635896998916e-07	-8.01596571709921e-67	363569.099107626	363569.099107614
7.36458384439106e-07	-8.3432487317926e-67	363569.099107626	363569.099107614
7.66222853069321e-07	-8.68119631801564e-67	363569.099107626	363569.099107614
7.96952657492446e-07	-9.03022701063564e-67	363569.099107626	363569.099107614
8.28671435409041e-07	-9.39053115399032e-67	363569.099107626	363569.099107614
8.61403099343132e-07	-9.76242560205059e-67	363569.099107626	363569.099107614
8.95171827831744e-07	-1.01462779733709e-66	363569.099107626	363569.099107614
9.30002056071754e-07	-1.05425004792288e-66	363569.099107626	363569.099107614
9.65918466018347e-07	-1.0951223270649e-66	363569.099107626	363569.099107614
1.00294597592988e-06	-1.13727548406995e-66	363569.099107626	363569.099107614
1.04110972935466e-06	-1.18073230159109e-66	363569.099107626	363569.099107614
1.08043508355587e-06	-1.22556063101095e-66	363569.099107626	363569.099107614
1.12094759737148e-06	-1.27174258860887e-66	363569.099107626	363569.099107614
1.16267301850678e-06	-1.31933669954208e-66	363569.099107626	363569.099107614
1.20563727025797e-06	-1.36835475291034e-66	363569.099107626	363569.099107614
1.24986643766601e-06	-1.41881793677869e-66	363569.099107626	363569.099107614
1.29538675310057e-06	-1.47078314117604e-66	363569.099107626	363569.099107614
1.34222458127518e-06	-1.524300508117e-66	363569.099107626	363569.099107614
1.39040640369498e-06	-1.57937590681702e-66	363569.099107626	363569.099107614
1.43995880253999e-06	-1.63608053907259e-66	363569.099107626	363569.099107614
1.490908443987e-06	-1.69444382526681e-66	363569.099107626	363569.099107614
1.54328206097489e-06	-1.75443031263199e-66	363569.099107626	363569.099107614
1.59710643541841e-06	-1.81613542353977e-66	363569.099107626	363569.099107614
1.65240837987695e-06	-1.87955538793982e-66	363569.099107626	363569.099107614
1.70921471868553e-06	-1.94475897225385e-66	363569.099107626	363569.099107614
1.76755226855625e-06	-2.01176153595054e-66	363569.099107626	363569.099107614
1.82744781865966e-06	-2.08062580759671e-66	363569.099107626	363569.099107614
1.88892811019611e-06	-2.15129173138209e-66	363569.099107626	363569.099107614
1.95201981546869e-06	-2.22382120237704e-66	363569.099107626	363569.099107614
2.01674951646997e-06	-2.29819885353261e-66	363569.099107626	363569.099107614
2.08314368299602e-06	-2.37442444765072e-66	363569.099107626	363569.099107614
2.15122865030218e-06	-2.45266884052959e-66	363569.099107626	363569.099107614
2.22103059631603e-06	-2.53302007047352e-66	363569.099107626	363569.099107614
2.2925755184243e-06	-2.61545014343911e-66	363569.099107626	363569.099107614
2.36588920985104e-06	-2.69989843318787e-66	363569.099107626	363569.099107614
2.44099723564608e-06	-2.78648762078729e-66	363569.099107626	363569.099107614
2.51792490830311e-06	-2.87543430296879e-66	363569.099107626	363569.099107614
2.59669726302834e-06	-2.96650387417123e-66	363569.099107626	363569.099107614
2.67733903268147e-06	-3.05974448799209e-66	363569.099107626	363569.099107614
2.75987462241158e-06	-3.15527176324458e-66	363569.099107626	363569.099107614
2.84432808401184e-06	-3.2530817809264e-66	363569.099107626	363569.099107614
2.93072309001773e-06	-3.353245954879e-66	363569.099107626	363569.099107614
3.01908290757432e-06	-3.45582618341394e-66	363569.099107626	363569.099107614
3.10943037209947e-06	-3.56076657093521e-66	363569.099107626	363569.099107614
3.20178786077025e-06	-3.66835619605904e-66	363569.099107626	363569.099107614
3.29617726586114e-06	-3.7785059569858e-66	363569.099107626	363569.099107614
3.39261996796315e-06	-3.89115970423999e-66	363569.099107626	363569.099107614
3.49113680911412e-06	-4.00642259379092e-66	363569.099107626	363569.099107614
3.59174806587093e-06	-4.12441392467034e-66	363569.099107626	363569.099107614
3.69447342235534e-06	-4.24505907057419e-66	363569.099107626	363569.099107614
3.79933194330587e-06	-4.36842823012756e-66	363569.099107626	363569.099107614
3.90634204716864e-06	-4.49458434917406e-66	363569.099107626	363569.099107614
4.01552147926091e-06	-4.62351581274157e-66	363569.099107626	363569.099107614
4.12688728504169e-06	-4.75507153408995e-66	363569.099107626	363569.099107614
4.24045578352403e-06	-4.88945470014395e-66	363569.099107626	363569.099107614
4.35624254086452e-06	-5.02693029747002e-66	363569.099107626	363569.099107614
4.4742623441656e-06	-5.16732700748605e-66	363569.099107626	363569.099107614
4.59452917552698e-06	-5.31078944377822e-66	363569.099107626	363569.099107614
4.71705618638251e-06	-5.45718508180994e-66	363569.099107626	363569.099107614
4.84185567215947e-06	-5.60666264057538e-66	363569.099107626	363569.099107614
4.96893904729713e-06	-5.75923263315215e-66	363569.099107626	363569.099107614
5.0983168206619e-06	-5.91474372197614e-66	363569.099107626	363569.099107614
5.22999857139624e-06	-6.07365049563452e-66	363569.099107626	363569.099107614
5.36399292523878e-06	-6.23527358574158e-66	363569.099107626	363569.099107614
5.50030753135293e-06	-6.40006623997691e-66	363569.099107626	363569.099107614
5.6389490397012e-06	-6.56734934713042e-66	363569.099107626	363569.099107614
5.77992307900238e-06	-6.73740799788495e-66	363569.099107626	363569.099107614
5.92323423530842e-06	-6.91008650055501e-66	363569.099107626	363569.099107614
6.06888603123773e-06	-7.08562599221116e-66	363569.099107626	363569.099107614
6.21688090590101e-06	-7.26376989042376e-66	363569.099107626	363569.099107614
6.36722019555563e-06	-7.44412850680415e-66	363569.099107626	363569.099107614
6.5199041150238e-06	-7.62662697553805e-66	363569.099107626	363569.099107614
6.6749317399095e-06	-7.81109502894671e-66	363569.099107626	363569.099107614
6.83230098964826e-06	-7.99769589588097e-66	363569.099107626	363569.099107614
6.99200861142341e-06	-8.18667827936587e-66	363569.099107626	363569.099107614
7.15405016498153e-06	-8.37716886460408e-66	363569.099107626	363569.099107614
7.31842000837912e-06	-8.56986041952586e-66	363569.099107626	363569.099107614
7.48511128469147e-06	-8.76380598060769e-66	363569.099107626	363569.099107614
7.65411590971394e-06	-8.95936162689999e-66	363569.099107626	363569.099107614
7.82542456068475e-06	-9.15731422746871e-66	363569.099107626	363569.099107614
7.99902666605726e-06	-9.35722271157651e-66	363569.099107626	363569.099107614
8.17491039634862e-06	-9.5574264301542e-66	363569.099107626	363569.099107614
8.3530626560906e-06	-9.75870116042029e-66	363569.099107626	363569.099107614
8.53346907690674e-06	-9.96077782297148e-66	363569.099107626	363569.099107614
8.71611401173927e-06	-1.01624387917941e-65	363569.099107626	363569.099107614
8.90098053024712e-06	-1.03643098493287e-65	363569.099107626	363569.099107614
9.08805041539565e-06	-1.05653343464912e-65	363569.099107626	363569.099107614
9.27730416125661e-06	-1.07661022618881e-65	363569.099107626	363569.099107614
9.46872097203571e-06	-1.0966380284007e-65	363569.099107626	363569.099107614
9.6622787623435e-06	-1.11670448540245e-65	363569.099107626	363569.099107614
9.85795415872344e-06	-1.13666992212856e-65	363569.099107626	363569.099107614
1.00557225024497e-05	-1.15647699580146e-65	363569.099107626	363569.099107614
1.02555578536051e-05	-1.17618292271472e-65	363569.099107626	363569.099107614
1.04574329964484e-05	-1.19583147796837e-65	363569.099107626	363569.099107614
1.06613194460779e-05	-1.21534699536452e-65	363569.099107626	363569.099107614
1.08671874563963e-05	-1.23467036106291e-65	363569.099107626	363569.099107614
1.10750060293806e-05	-1.25374310989743e-65	363569.099107626	363569.099107614
1.12847429256596e-05	-1.27243875796881e-65	363569.099107626	363569.099107614
1.14963646763958e-05	-1.29092561045825e-65	363569.099107626	363569.099107614
1.17098365964736e-05	-1.30910440260576e-65	363569.099107626	363569.099107614
1.19251227989853e-05	-1.32696567084116e-65	363569.099107626	363569.099107614
1.21421862110126e-05	-1.34446508072151e-65	363569.099107626	363569.099107614
1.23609885906936e-05	-1.36160862024678e-65	363569.099107626	363569.099107614
1.25814905455648e-05	-1.37833004264055e-65	363569.099107626	363569.099107614
1.28036515521685e-05	-1.39469551313257e-65	363569.099107626	363569.099107614
1.30274299769096e-05	-1.41064237146388e-65	363569.099107626	363569.099107614
1.3252783098147e-05	-1.42623914133229e-65	363569.099107626	363569.099107614
1.3479667129502e-05	-1.44154311827916e-65	363569.099107626	363569.099107614
1.37080372443639e-05	-1.45650415340871e-65	363569.099107626	363569.099107614
1.39378476015714e-05	-1.47082745046917e-65	363569.099107626	363569.099107614
1.41690513722462e-05	-1.48480418103983e-65	363569.099107626	363569.099107614
1.44016007677545e-05	-1.49820281941726e-65	363569.099107626	363569.099107614
1.46354470687687e-05	-1.51126079002222e-65	363569.099107626	363569.099107614
1.48705406554005e-05	-1.52381464131136e-65	363569.099107626	363569.099107614
1.51068310383762e-05	-1.53580228816973e-65	363569.099107626	363569.099107614
1.53442668912202e-05	-1.54729056446536e-65	363569.099107626	363569.099107614
1.55827960834148e-05	-1.55851095719074e-65	363569.099107626	363569.099107614
1.58223657144995e-05	-1.5692146658754e-65	363569.099107626	363569.099107614
1.60629221490743e-05	-1.57942974339705e-65	363569.099107626	363569.099107614
1.63044110526672e-05	-1.58898081531154e-65	363569.099107626	363569.099107614
1.65467774284272e-05	-1.59808206535968e-65	363569.099107626	363569.099107614
1.67899656546015e-05	-1.60646625062132e-65	363569.099107626	363569.099107614
1.70339195227535e-05	-1.6141829217754e-65	363569.099107626	363569.099107614
1.72785822766799e-05	-1.62129653297865e-65	363569.099107626	363569.099107614
1.75238966519796e-05	-1.627760297882e-65	363569.099107626	363569.099107614
1.77698049162305e-05	-1.63368191250672e-65	363569.099107626	363569.099107614
1.80162489097262e-05	-1.63883267195708e-65	363569.099107626	363569.099107614
1.82631700867253e-05	-1.64332670522631e-65	363569.099107626	363569.099107614
1.85105095571636e-05	-1.64702314448846e-65	363569.099107626	363569.099107614
1.87582081287812e-05	-1.65017182761387e-65	363569.099107626	363569.099107614
1.90062063496129e-05	-1.65273223075462e-65	363569.099107626	363569.099107614
1.92544445507917e-05	-1.65470426216954e-65	363569.099107626	363569.099107614
1.9502862889614e-05	-1.65591981271676e-65	363569.099107626	363569.099107614
1.97514013928147e-05	-1.65647914150832e-65	363569.099107626	363569.099107614
2e-05	-1.65651112073599e-65	363569.099107626	363569.099107614
2.02485986071853e-05	-1.65606575254926e-65	363569.099107626	363569.099107614
2.0497137110386e-05	-1.6549786754469e-65	363569.099107626	363569.099107614
2.07455554492083e-05	-1.65323923589676e-65	363569.099107626	363569.099107614
2.09937936503871e-05	-1.65091906284379e-65	363569.099107626	363569.099107614
2.12417918712188e-05	-1.64789303347913e-65	363569.099107626	363569.099107614
2.14894904428364e-05	-1.64422562932957e-65	363569.099107626	363569.099107614
2.17368299132747e-05	-1.64002797192052e-65	363569.099107626	363569.099107614
2.19837510902738e-05	-1.63529999483801e-65	363569.099107626	363569.099107614
2.22301950837695e-05	-1.62983020793739e-65	363569.099107626	363569.099107614
2.24761033480204e-05	-1.6238020806596e-65	363569.099107626	363569.099107614
2.27214177233201e-05	-1.61721529863112e-65	363569.099107626	363569.099107614
2.29660804772465e-05	-1.61000916074456e-65	363569.099107626	363569.099107614
2.32100343453986e-05	-1.60219778113255e-65	363569.099107626	363569.099107614
2.34532225715728e-05	-1.59381403477178e-65	363569.099107626	363569.099107614
2.36955889473328e-05	-1.58491136604213e-65	363569.099107626	363569.099107614
2.39370778509257e-05	-1.57546812557289e-65	363569.099107626	363569.099107614
2.41776342855005e-05	-1.56557051883851e-65	363569.099107626	363569.099107614
2.44172039165852e-05	-1.55518018743906e-65	363569.099107626	363569.099107614
2.46557331087798e-05	-1.54433925536078e-65	363569.099107626	363569.099107614
2.48931689616238e-05	-1.53302413517329e-65	363569.099107626	363569.099107614
2.51294593445995e-05	-1.52114258927145e-65	363569.099107626	363569.099107614
2.53645529312313e-05	-1.50882563303854e-65	363569.099107626	363569.099107614
2.55983992322455e-05	-1.49607277718056e-65	363569.099107626	363569.099107614
2.58309486277538e-05	-1.48288054749958e-65	363569.099107626	363569.099107614
2.60621523984286e-05	-1.46927376441929e-65	363569.099107626	363569.099107614
2.62919627556361e-05	-1.45528232700044e-65	363569.099107626	363569.099107614
2.6520332870498e-05	-1.44087386995591e-65	363569.099107626	363569.099107614
2.6747216901853e-05	-1.42610562005597e-65	363569.099107626	363569.099107614
2.69725700230904e-05	-1.4110265713587e-65	363569.099107626	363569.099107614
2.71963484478315e-05	-1.39560700244215e-65	363569.099107626	363569.099107614
2.74185094544352e-05	-1.37986844278524e-65	363569.099107626	363569.099107614
2.76390114093064e-05	-1.36384849535128e-65	363569.099107626	363569.099107614
2.78578137889874e-05	-1.34754188584836e-65	363569.099107626	363569.099107614
2.80748772010148e-05	-1.33097962640854e-65	363569.099107626	363569.099107614
2.82901634035264e-05	-1.31412730200278e-65	363569.099107626	363569.099107614
2.85036353236042e-05	-1.29704816827415e-65	363569.099107626	363569.099107614
2.87152570743404e-05	-1.2797177649116e-65	363569.099107626	363569.099107614
2.89249939706194e-05	-1.26218928109245e-65	363569.099107626	363569.099107614
2.91328125436037e-05	-1.24447641320069e-65	363569.099107626	363569.099107614
2.93386805539221e-05	-1.22656428723109e-65	363569.099107626	363569.099107614
2.95425670035516e-05	-1.20847684900123e-65	363569.099107626	363569.099107614
2.97444421463949e-05	-1.19025655091624e-65	363569.099107626	363569.099107614
2.99442774975503e-05	-1.17184725518135e-65	363569.099107626	363569.099107614
3.01420458412766e-05	-1.15333960759044e-65	363569.099107626	363569.099107614
3.03377212376565e-05	-1.13470153542133e-65	363569.099107626	363569.099107614
3.05312790279643e-05	-1.11597415243753e-65	363569.099107626	363569.099107614
3.07226958387434e-05	-1.09719855823212e-65	363569.099107626	363569.099107614
3.09119495846044e-05	-1.07836944635026e-65	363569.099107626	363569.099107614
3.10990194697529e-05	-1.05948373119397e-65	363569.099107626	363569.099107614
3.12838859882607e-05	-1.04060039006894e-65	363569.099107626	363569.099107614
3.14665309230933e-05	-1.02172053563505e-65	363569.099107626	363569.099107614
3.16469373439094e-05	-1.00285709844563e-65	363569.099107626	363569.099107614
3.18250896036514e-05	-9.84012629185951e-66	363569.099107626	363569.099107614
3.20009733339427e-05	-9.65212035039629e-66	363569.099107626	363569.099107614
3.21745754393153e-05	-9.46463463503096e-66	363569.099107626	363569.099107614
3.23458840902861e-05	-9.27793655075146e-66	363569.099107626	363569.099107614
3.25148887153085e-05	-9.09202694379965e-66	363569.099107626	363569.099107614
3.26815799916209e-05	-8.90719647752169e-66	363569.099107626	363569.099107614
3.28459498350185e-05	-8.72351310535051e-66	363569.099107626	363569.099107614
