Position  (cm)	V (V)	n (cm-3)	p (cm-3)
0	0	1.32181965358943e-08	4.80574687438055e-22
1.31493062191688e-09	0.000117318073071493	1.32515809701021e-08	4.7839874443513e-22
2.89810281382233e-09	0.000258568651466135	1.32919772984972e-08	4.7579198205329e-22
4.79687898130571e-09	0.00042797740767744	1.33407186830158e-08	4.72684287388619e-22
7.06538374966409e-09	0.000630373339251026	1.33993713904747e-08	4.68998059112662e-22
9.76514852318006e-09	0.000871246276344979	1.34697757076611e-08	4.6464848713294e-22
1.29657563412217e-08	0.00115680441577198	1.35540955820458e-08	4.59544223452009e-22
1.67454735034486e-08	0.00149403067458677	1.36548794542689e-08	4.53588543778109e-22
2.11918522040056e-08	0.00189073645708372	1.37751355443979e-08	4.46681103188918e-22
2.64022862272221e-08	0.00235561123395827	1.39184259123239e-08	4.38720384999611e-22
3.24844996966881e-08	0.002898266148489	1.4088985026895e-08	4.2960692647566e-22
3.95569470274998e-08	0.00352926970025158	1.42918704829095e-08	4.19247374414276e-22
4.77491007079086e-08	0.00426017342100383	1.45331560896737e-08	4.07559374332934e-22
5.72016024369865e-08	0.00510352535918047	1.48201810713957e-08	3.94477226402283e-22
6.80662525765137e-08	0.00607286913879016	1.51618739785668e-08	3.7995814862965e-22
8.05058129432618e-08	0.00718272636453471	1.5569176628053e-08	3.63988875586948e-22
9.46935987703811e-08	0.00844856021664012	1.60556028151537e-08	3.46592196075052e-22
1.10812837289863e-07	0.00988671822358627	1.66379798085447e-08	3.27832907930286e-22
1.29055772900748e-07	0.0115143524252418	1.73374395612038e-08	3.07822560966705e-22
1.49622502335631e-07	0.0133493154464678	1.81807535698548e-08	2.86722293209805e-22
1.72719527638829e-07	0.0154100313938285	1.92021444777729e-08	2.64743067118858e-22
1.98558020108218e-07	0.0177153409645905	2.04457644836126e-08	2.42142705757575e-22
2.27351794577645e-07	0.0202843207121998	2.19691139873808e-08	2.19219330397272e-22
2.5931500043699e-07	0.0231360770391689	2.38477976869438e-08	1.96301112628105e-22
2.94659543471083e-07	0.0262895161737166	2.61821992065074e-08	1.73732656624034e-22
3.33592260774989e-07	0.0297630921156184	2.91069318487791e-08	1.51858777468532e-22
3.76311879462294e-07	0.0335745352923293	3.28043410849734e-08	1.31006873896096e-22
4.23005798381519e-07	0.0377405654238515	3.752397239088e-08	1.11469429289218e-22
4.7384674032276e-07	0.0422765928326711	4.36108942460464e-08	9.34883355446845e-23
5.28989329941691e-07	0.0471964131261928	5.15472799682317e-08	7.7242663199602e-23
5.88566659550639e-07	0.0525119007967781	6.20139997170164e-08	6.28411792711159e-23
6.52686910727677e-07	0.0582327078018016	7.59826493857806e-08	5.03203730410146e-23
7.21430104088801e-07	0.0643659735783207	9.48542222506555e-08	3.96480707292744e-23
7.94845052295776e-07	0.0709160531906924	1.20669751620231e-07	3.07320194625587e-23
8.72946592212141e-07	0.0778842703834441	1.5643270989771e-07	2.34322258655962e-23
9.55713170901876e-07	0.0852687022042285	2.06605922159117e-07	1.75754511055563e-23
1.0430848567801e-06	0.0930640015587407	2.77882303660119e-07	1.29701518178832e-23
1.13496184163372e-06	0.101261263561026	3.80386854426942e-07	9.42031454826899e-24
1.2312034914693e-06	0.109847940850098	5.29559710122234e-07	6.73700311885411e-24
1.33162799433176e-06	0.118807812168504	7.49116168126955e-07	4.74692866438182e-24
1.43601264156799e-06	0.128121007456443	1.07570970582528e-06	3.29785509097896e-24
1.54409476575619e-06	0.137764091533982	1.56628312420947e-06	2.26107807651807e-24
1.65557334402709e-06	0.147710207149136	2.30964901600244e-06	1.53150687535466e-24
1.7701112601699e-06	0.157929276803117	3.44468452234885e-06	1.02601813179588e-24
1.88733820319073e-06	0.168388261359491	5.18879369464962e-06	6.80756676403075e-25
2.00685416435361e-06	0.179051472050071	7.88214516971002e-06	4.47968107342084e-25
2.12823347967552e-06	0.189880931146229	1.20558321794704e-05	2.9280673535105e-25
2.25102935085234e-06	0.200836775315877	1.8535718421889e-05	1.90409978716392e-25
2.37477876512313e-06	0.211877694573531	2.85985390961133e-05	1.23394532995967e-25
2.49900772405243e-06	0.222961398792113	4.42026291103009e-05	7.982527086614e-26
2.62323668298172e-06	0.234045103010695	6.83223952587773e-05	5.16382871220539e-26
2.74698609725251e-06	0.245086022268315	0.000105422124220848	3.34608208969348e-26
2.86978196842934e-06	0.25604186643799	0.000162109264689435	2.17554591154996e-26
2.99116128375124e-06	0.266871325534163	0.000248007488726512	1.42159829237677e-26
3.11067724491412e-06	0.277534536224739	0.00037688120313173	9.35057936469715e-27
3.22790418793496e-06	0.287993520781084	0.000568021587537149	6.19990047645155e-27
3.34244210407776e-06	0.298212590435047	0.000847866533459634	4.14947087725912e-27
3.45392068234866e-06	0.308158706050201	0.00125176764405305	2.80657185732047e-27
3.56200280653686e-06	0.31780179012774	0.00182574388680338	1.92033411395481e-27
3.6663874537731e-06	0.327114985415692	0.00262797592513708	1.3303241488959e-27
3.76681195663555e-06	0.336074856734076	0.0037297176955727	9.33677486828259e-28
3.86305360647113e-06	0.344661534023143	0.00521525085695426	6.64180864871587e-28
3.95493059132476e-06	0.352858796025413	0.00718051239684581	4.78992944569807e-28
4.04230227720298e-06	0.360654095379932	0.0097301025276088	3.50221034003757e-28
4.12506885589271e-06	0.368038527200718	0.0129725391174826	2.59574046598204e-28
4.20317039580908e-06	0.375006744393477	0.0170138661273493	1.94960911892961e-28
4.27658534401605e-06	0.381556824005849	0.0219499933968744	1.4831922739293e-28
4.34532853737717e-06	0.387690089782399	0.0278584246670613	1.14222950435675e-28
4.40944878855421e-06	0.39341089678741	0.03479023465969	8.89847275237397e-29
4.46902611816316e-06	0.398726384457995	0.0427632358251728	7.00734780551695e-29
4.52416870778209e-06	0.403646204751524	0.0517572273312157	5.57338644527724e-29
4.57500964972333e-06	0.408182232160326	0.0617119927754256	4.47357761501973e-29
4.62170356864256e-06	0.412348262291853	0.0725283952160908	3.62080729645209e-29
4.66442318732986e-06	0.416159705468551	0.0840725175949257	2.95273143765131e-29
4.70335590463377e-06	0.419633281410424	0.0961824333418395	2.4242638192154e-29
4.73870044766786e-06	0.422786720544971	0.1086768866987	2.00245909161829e-29
4.77066365352721e-06	0.425638476871974	0.121364979000494	1.66299570490501e-29
4.79945742799663e-06	0.428207456619589	0.134055928560775	1.38773645009024e-29
4.82529592046602e-06	0.430512766190337	0.146568051485548	1.16302101655879e-29
4.84839294576922e-06	0.432573482137698	0.158736299624171	9.78460093405503e-30
4.8689596752041e-06	0.434408445158914	0.170417935382278	8.26076086083407e-30
4.88720261081499e-06	0.436036079360565	0.181496164632001	6.99685454735788e-30
4.90332184933447e-06	0.437474237367512	0.191881777330291	5.94450936378386e-30
4.91750963516159e-06	0.438740071219618	0.201513016473116	5.06554230259323e-30
4.92994919552834e-06	0.439849928445359	0.21035400781798	4.32954817939101e-30
4.94081384566786e-06	0.44081927222496	0.218392135008823	3.71210875270587e-30
4.95026634739694e-06	0.441662624163141	0.22563474192731	3.19345298069243e-30
4.95845850107735e-06	0.442393527883894	0.232105513697892	2.75744753598433e-30
4.96553094840816e-06	0.443024531435657	0.237840823329053	2.39083081962478e-30
4.97161316187763e-06	0.443567186350184	0.242886264196191	2.08262770999805e-30
4.97682359590085e-06	0.444032061127059	0.247293519035499	1.82369929366961e-30
4.9812699746014e-06	0.444428766909555	0.251117652770132	1.60639398342497e-30
4.98504969176363e-06	0.444765993168369	0.25441486762613	1.42427519064537e-30
4.98825029958167e-06	0.445051551307796	0.257240717152715	1.27190708526167e-30
4.99095006435519e-06	0.44529242424489	0.25964875020693	1.14468463932772e-30
4.99321856912355e-06	0.445494820176464	0.261689539485532	1.03869759156932e-30
4.99511734529103e-06	0.445664228932676	0.26341003791689	9.50620527769467e-31
4.99670051748294e-06	0.445805479511071	0.264853207558341	8.77623183837287e-31
4.99801544810485e-06	0.445922797584142	0.266057864702772	8.17296514434921e-31
4.99910337028458e-06	0.446019861970392	0.267058691292828	7.67591151910738e-31
5e-06	0.446099859248362	0.267886368778748	7.26765696495862e-31
5.0025e-06	0.446322909177987	0.399928523946445	1.45324252356356e-30
5.005e-06	0.446545959107611	0.597054731809626	3.07973963603514e-30
5.0075e-06	0.446769009037234	0.891345158808503	6.72127748034022e-30
5.01e-06	0.446992058966859	1.33069239699011	1.48742571440761e-29
5.0125e-06	0.447215108896483	1.98659548251279	3.31278303009076e-29
5.015e-06	0.447438158826108	2.96579554425892	7.39954574725466e-29
5.0175e-06	0.447661208755732	4.42764684857101	1.6549332134173e-28
5.02e-06	0.447884258685356	6.61004992804832	3.70346396451204e-28
5.0225e-06	0.448107308614981	9.86816732638687	8.28988605531576e-28
5.025e-06	0.448330358544605	14.7322225352037	1.85583516859229e-27
5.0275e-06	0.44855340847423	21.9937881016404	4.15482519595643e-27
5.03e-06	0.448776458403855	32.8346052483098	9.30199648713501e-27
5.0325e-06	0.448999508333479	49.0189005291586	2.08259143827894e-26
5.035e-06	0.449222558263104	73.1804929662008	4.66266263170385e-26
5.0375e-06	0.449445608192727	109.25142129477	1.0439141975115e-25
5.04e-06	0.449668658122351	163.101838880202	2.33720074377604e-25
5.0425e-06	0.449891708051976	243.495321298533	5.23271891759261e-25
5.045e-06	0.450114757981601	363.515043015398	1.17154473773845e-24
5.0475e-06	0.450337807911225	542.692917417834	2.62295225081602e-24
5.05e-06	0.45056085784085	810.188212207462	5.87248488738096e-24
5.0525e-06	0.450783907770474	1209.5328947824	1.31478105752581e-23
5.055e-06	0.451006957700098	1805.71601489493	2.94364187611558e-23
5.0575e-06	0.451230007629722	2695.75993704076	6.59047183522077e-23
5.06e-06	0.451453057559347	4024.50972702376	1.47553000442024e-22
5.0625e-06	0.451676107488972	6008.20507385272	3.30354009744346e-22
5.065e-06	0.451899157418597	8969.67103575179	7.39624213227665e-22
5.0675e-06	0.45212220734822	13390.8541247498	1.65593260898559e-21
5.07e-06	0.452345257277844	19991.2542906295	3.70744056042003e-21
5.0725e-06	0.452568307207469	29845.015641817	8.30052832102558e-21
5.075e-06	0.452791357137094	44555.7312109425	1.85839177553494e-20
5.0775e-06	0.453014407066718	66517.4110871863	4.16072310119878e-20
5.08e-06	0.453237456996343	99304.0822057366	9.31537524276201e-20
5.0825e-06	0.453460506925967	148251.421447161	2.08560420537026e-19
5.085e-06	0.453683556855592	221325.081191551	4.66942532215425e-19
5.0875e-06	0.453906606785217	330417.010215519	1.04543003885443e-18
5.09e-06	0.454129656714841	493280.740435113	2.34059630785174e-18
5.0925e-06	0.454352706644464	736420.591206615	5.24032300251859e-18
5.095e-06	0.454575756574089	1099404.9558433	1.17324739413994e-17
5.0975e-06	0.454798806503714	1641305.62160172	2.62676451082405e-17
5.1e-06	0.455021856433337	2450311.06745309	5.88102034952151e-17
5.1025e-06	0.455244906362962	3658078.22615564	1.3166920838286e-16
5.105e-06	0.455467956292586	5461158.11514172	2.94792049976138e-16
5.1075e-06	0.45569100622221	8152982.60963615	6.60005128425786e-16
5.11e-06	0.455914056151834	12171617.0478045	1.47767475369176e-15
5.1125e-06	0.456137106081458	18171050.8261601	3.30834198881782e-15
5.115e-06	0.456360156011083	27127627.0556808	7.40699311187712e-15
5.1175e-06	0.456583205940707	40498932.0716812	1.65833965114276e-14
5.12e-06	0.456806255870332	60461001.4773732	3.71282969871635e-14
5.1225e-06	0.457029305799956	90262446.4936039	8.31259408875763e-14
5.125e-06	0.457252355729581	134753130.751978	1.86109318600694e-13
5.1275e-06	0.457475405659205	201173433.246217	4.166771301812e-13
5.13e-06	0.45769845558883	300332539.209873	9.32891658717931e-13
5.1325e-06	0.457921505518455	448367529.196375	2.08863598324772e-12
5.135e-06	0.458144555448079	669369495.609916	4.67621318363175e-12
5.1375e-06	0.458367605377706	999304129.751078	1.04694977625189e-11
5.14e-06	0.458590655307332	1491864727.26231	2.34399885482106e-11
5.1425e-06	0.45881370523696	2227210227.12977	5.24794098011538e-11
5.145e-06	0.459036755166589	3325010152.58106	1.17495298651081e-10
5.1475e-06	0.459259805096218	4963919588.68079	2.63058316889971e-10
5.15e-06	0.45948285502585	7410653413.78848	5.88956995988383e-10
5.1525e-06	0.459705904955486	11063391102.0583	1.31860626005965e-09
5.155e-06	0.459928954885125	16516576432.6381	2.95220615430382e-09
5.1575e-06	0.460152004814765	24657656409.9521	6.60964645376477e-09
5.16e-06	0.460375054744398	36811503921.5758	1.47982302105513e-08
5.1625e-06	0.460598104673998	54956026204.3793	3.31315177485551e-08
5.165e-06	0.460821154603494	82044048832.8423	7.41776159443426e-08
5.1675e-06	0.4610442045327	122483854719.951	1.66075055259131e-07
5.17e-06	0.461267254461124	182856587316.23	3.71822819447039e-07
5.1725e-06	0.461490304387523	272987255280.028	8.32468117178661e-07
5.175e-06	0.461713354308737	407543654936.111	1.86379913451943e-06
5.1775e-06	0.461936404216791	608423386335.705	4.17282971969138e-06
5.18e-06	0.462159454091621	908317459570.124	9.34247963786696e-06
5.1825e-06	0.462382503882833	1356030402960.34	2.09167300344734e-05
5.185e-06	0.46260555346395	2024422648502.87	4.68301223859622e-05
5.1875e-06	0.462828602517768	3022267733269.72	0.000104847199299316
5.19e-06	0.463051650248956	4511953947943.14	0.0002347407158262
5.1925e-06	0.463274694663823	6735910739543.5	0.000525557288693902
5.195e-06	0.463497730765266	10056059758127	0.00117666213337649
5.1975e-06	0.463720746029182	15012706851193.3	0.00263441410507221
5.2e-06	0.463943709068076	22412445621362.1	0.00589816963473383
5.20144875308336e-06	0.464072874945122	22524706879270.4	0.00586877298210015
5.20299266998232e-06	0.464210481614282	22644922964389.4	0.00583761646700621
5.20463729458286e-06	0.464357014604049	22773642774307.9	0.00580462069070424
5.20638844300632e-06	0.464512982440799	22911454497525.5	0.00576970529420415
5.20825221356313e-06	0.464678917378357	23058988827598.6	0.00573278916752471
5.21023499685045e-06	0.464855376123209	23216922497168.2	0.00569379085438075
5.21234348598083e-06	0.465042940552553	23385982167260.7	0.00565262892706114
5.21458468692748e-06	0.465242218422163	23566948727920.9	0.00560922237963607
5.21696592897063e-06	0.465453844060772	23760662015196.4	0.00556349109464694
5.21949487522835e-06	0.465678479047485	23968026054371	0.00551535639404238
5.22217953325368e-06	0.465916812868368	24190014838623.6	0.00546474151845226
5.22502826567872e-06	0.466169563548221	24427678743592.5	0.00541157226805616
5.2280498008851e-06	0.466437478253131	24682151635825	0.00535577774636091
5.23125324367885e-06	0.466721333859212	24954658778158.2	0.00529729086215402
5.23464808594606e-06	0.467021937482579	25246525588469.1	0.00523604926050225
5.23824421726501e-06	0.467340126965329	25559187447673.4	0.00517199601386755
5.24205193544826e-06	0.467676771312011	25894200581910.8	0.00510508044737439
5.2460819569875e-06	0.468032771070687	26253254238561.8	0.0050352590786128
5.25034542737225e-06	0.468409058652452	26638184262813.7	0.00496249643192888
5.25485393125206e-06	0.468806598582883	27050988350837.2	0.00488676596534405
5.25961950241094e-06	0.469226387678637	27493843068133.3	0.00480805110301065
5.26465463352082e-06	0.469669455142031	27969122989711.4	0.0047263460155528
5.26997228564013e-06	0.470136862566139	28479422176938.9	0.00464165668024743
5.2755858974218e-06	0.470629703842677	29027578341768.8	0.00455400185173124
5.28150939399417e-06	0.471149104964518	29616700062291.7	0.00446341381401166
5.28775719547687e-06	0.471696223714512	30250197480324.4	0.00436993934773742
5.29434422509252e-06	0.472272249231885	30931816956217.9	0.00427364047946654
5.30128591683435e-06	0.472878401447267	31665680242648.4	0.00417459527489702
5.3085982226484e-06	0.473515930377147	32456328845821.2	0.00407289839576104
5.31629761908839e-06	0.474186115268223	33308774342971.1	0.00396866171525704
5.32440111340023e-06	0.474890263581998	34228555485217.1	0.00386201460833552
5.33292624899233e-06	0.475629709809727	35221803168568	0.00375310434546802
5.34189111024758e-06	0.476405814107616	36295314320743.7	0.00364209603107974
5.35131432663166e-06	0.477219960742079	37456636193423.6	0.00352917260457568
5.36121507605239e-06	0.478073556334768	38714162649847.8	0.0034145345155818
5.37161308742422e-06	0.478968027896965	40077244196775.3	0.00329839922239413
5.3825286423917e-06	0.479904820643011	41556314040397.1	0.00318100048462855
5.39398257616581e-06	0.480885395572341	43163032619791	0.00306258728580793
5.40599627742684e-06	0.481911226809865	44910453534226.2	0.00294342277815751
5.41859168724794e-06	0.48298379869468	46813214501044.3	0.00282378268765698
5.43179129699344e-06	0.484104602606946	48887757282955.5	0.00270395369723575
5.44561814514699e-06	0.485275133523556	51152581197026.3	0.00258423154629899
5.46009581302454e-06	0.486496886293009	53628536209854.2	0.0024649189378936
5.47524841932876e-06	0.487771351620778	56339161844012.8	0.00234632299264628
5.49110061350176e-06	0.489100011756683	59311079828614.5	0.00222875290550789
5.50767756783471e-06	0.490484335876471	62574449715331.1	0.00211251733939739
5.52500496829378e-06	0.491925775150471	66163497892349.9	0.00199792149014188
5.54310900402383e-06	0.493425757492952	70117133375010.2	0.00188526436763152
5.56201635549257e-06	0.494985681986604	74479664977518.5	0.00177483598857103
5.5817541812402e-06	0.49660691297785	79301637805504.8	0.00166691440780496
5.60235010320123e-06	0.498290773839215	84640810044176.1	0.00156176307626068
5.62383219056784e-06	0.500038540396774	90563295571264.6	0.00145962817656838
5.64622894216644e-06	0.501851434021715	97144901125477.5	0.00136073617076306
5.66956926732177e-06	0.503730614386408	104472693842301	0.00126529158178005
5.69388246518589e-06	0.505677171887207	112646840042232	0.0011734750509768
5.71919820251226e-06	0.507692119737772	121782764864612	0.0010854416927362
5.74554648985868e-06	0.50977638573848	132013690711935	0.00100131979099071
5.77295765620598e-06	0.511930803729588	143493623076214	0.000921209907754962
5.80146232198329e-06	0.51415610473797	156400865451691	0.000845184421866064
5.83109137049423e-06	0.516452907829562	170942159539700	0.000773287295676468
5.86187591774267e-06	0.518821710681908	187357563811948	0.000705534495733726
5.89384728066053e-06	0.521262879894392	205926203242055	0.000641914655810822
5.92703694374466e-06	0.523776641055899	226973048812879	0.000582390157613592
5.96147652411414e-06	0.5263630685935	250876907791668	0.000526898595557725
5.99719773500394e-06	0.529022075432726	278079842716037	0.0004753545230537
6.03423234771566e-06	0.531753402483865	309098264553274	0.000427651489865962
6.07261215205091e-06	0.534556608007051	344535992665716	0.000383664282477408
6.11236891525767e-06	0.537431056897797	385099614296156	0.000343251387047349
6.1535343395252e-06	0.540375909913755	431616524570212	0.000306257507227612
6.19614001806797e-06	0.543390112908659	485056079909947	0.00027251617273887
6.24021738984453e-06	0.546472386123701	546554354893171	0.000241852349488557
6.28579769296194e-06	0.549621213600573	617443043889947	0.000214084986352595
6.33291191682229e-06	0.552834832775751	699283102250002	0.000189029477026401
6.38159075307232e-06	0.556111224344323	793903771089985	0.000166499971884154
6.43186454542308e-06	0.559448102482377	903447660908805	0.000146311514676252
6.48376323841129e-06	0.562842905513327	1.03042257937737e+15	0.000128281972192687
6.53731632517948e-06	0.566292787139854	1.17776077517175e+15	0.000112233732331558
6.59255279435682e-06	0.569794608364853	1.3488862047468e+15	9.79951748941691e-05
6.64950107612801e-06	0.573344930244183	1.54779030430566e+15	8.54018773456512e-05
6.70818898758193e-06	0.576940007635328	1.77911653811114e+15	7.42975841213522e-05
6.76864367743702e-06	0.580575784123945	2.04825368737665e+15	6.45349400980363e-05
6.83089157024469e-06	0.584247888337862	2.36143739083104e+15	5.59759928568256e-05
6.89495831017663e-06	0.587951631884838	2.72585883302411e+15	4.84924894691503e-05
6.96086870450617e-06	0.591682009186065	3.14977867028252e+15	4.19659854544217e-05
7.02864666689792e-06	0.595433699496955	3.64264326341842e+15	3.62877849545262e-05
7.09831516062365e-06	0.599201071447143	4.21519902455952e+15	3.13587451128214e-05
7.16989614182609e-06	0.602978190476627	4.87959916883228e+15	2.70889575690991e-05
